rosbagTimestamp,x,y,z,w,x,y,z,x,y,z
1471539672636547139,-0.189496307873,-0.619380724222,0.604203536585,0.464108558575,-0.216675099409,-0.221824947723,-0.479889568762,3.19474196618,-8.28194923164,0.921332730214
1471539672638043330,-0.189496307873,-0.619380724222,0.604203536585,0.464108558575,-0.216675099409,-0.221824947723,-0.479889568762,3.19474196618,-8.28194923164,0.921332730214
1471539672643561142,-0.189496307873,-0.619380724222,0.604203536585,0.464108558575,-0.216675099409,-0.221824947723,-0.479889568762,3.19474196618,-8.28194923164,0.921332730214
1471539672645051671,-0.187915585324,-0.621206976841,0.602573425756,0.464429640838,-0.26245154559,-0.259781253701,-0.453186680466,3.17884914199,-8.84964300688,0.965125296125
1471539672647238125,-0.187915585324,-0.621206976841,0.602573425756,0.464429640838,-0.26245154559,-0.259781253701,-0.453186680466,3.17884914199,-8.84964300688,0.965125296125
1471539672648775216,-0.187915585324,-0.621206976841,0.602573425756,0.464429640838,-0.26245154559,-0.259781253701,-0.453186680466,3.17884914199,-8.84964300688,0.965125296125
1471539672656568989,-0.186201447811,-0.623034183981,0.60123810919,0.464403017305,-0.226593320446,-0.330162489639,-0.400543748262,3.2429273407,-9.30251487966,0.978998400182
1471539672658032549,-0.186201447811,-0.623034183981,0.60123810919,0.464403017305,-0.226593320446,-0.330162489639,-0.400543748262,3.2429273407,-9.30251487966,0.978998400182
1471539672666048690,-0.18421294205,-0.624517665818,0.600464672979,0.464204107657,-0.0961304795161,-0.373650018595,-0.349045193481,3.38142272393,-9.6152256983,1.10364202109
1471539672667066671,-0.18421294205,-0.624517665818,0.600464672979,0.464204107657,-0.0961304795161,-0.373650018595,-0.349045193481,3.38142272393,-9.6152256983,1.10364202109
1471539672682129244,-0.181969744835,-0.625345411403,0.600463408764,0.463976101904,0.101661779763,-0.375366571432,-0.281524928574,3.7629762283,-9.65608990923,0.968326029996
1471539672682613840,-0.181969744835,-0.625345411403,0.600463408764,0.463976101904,0.101661779763,-0.375366571432,-0.281524928574,3.7629762283,-9.65608990923,0.968326029996
1471539672686559054,-0.179522204873,-0.625639724667,0.600843971525,0.464040121926,0.243187203144,-0.327873570357,-0.287247002302,4.25503784059,-9.48384710394,0.608635012438
1471539672688037345,-0.179522204873,-0.625639724667,0.600843971525,0.464040121926,0.243187203144,-0.327873570357,-0.287247002302,4.25503784059,-9.48384710394,0.608635012438
1471539672703584422,-0.176982993775,-0.625412616991,0.601448809451,0.464537843488,0.358009763024,-0.244140914582,-0.311279666093,4.27574138594,-9.41598066093,0.683044344589
1471539672705036665,-0.174419513038,-0.624734456249,0.602376118775,0.465217910421,0.461388277733,-0.19378689135,-0.290298866767,4.0252379948,-9.41918001662,0.823037732418
1471539672707215998,-0.174419513038,-0.624734456249,0.602376118775,0.465217910421,0.461388277733,-0.19378689135,-0.290298866767,4.0252379948,-9.41918001662,0.823037732418
1471539672708791317,-0.174419513038,-0.624734456249,0.602376118775,0.465217910421,0.461388277733,-0.19378689135,-0.290298866767,4.0252379948,-9.41918001662,0.823037732418
1471539672717083851,-0.171978174395,-0.623722104024,0.6035972053,0.46590198351,0.527191950152,-0.157737967719,-0.236511584004,3.93628770412,-9.27628910586,0.967411102917
1471539672718553527,-0.171978174395,-0.623722104024,0.6035972053,0.46590198351,0.527191950152,-0.157737967719,-0.236511584004,3.93628770412,-9.27628910586,0.967411102917
1471539672726064138,-0.169731057131,-0.622506004445,0.604972978079,0.466567614037,0.552368982911,-0.122833434045,-0.188637059426,3.99413958766,-9.31124885334,1.01824746738
1471539672727058046,-0.169731057131,-0.622506004445,0.604972978079,0.466567614037,0.552368982911,-0.122833434045,-0.188637059426,3.99413958766,-9.31124885334,1.01824746738
1471539672740114326,-0.167822471124,-0.621223948904,0.606445354405,0.467055088416,0.5348212457,-0.101280342891,-0.113678124978,3.54584375318,-9.17456923895,1.17631370824
1471539672741096343,-0.167822471124,-0.621223948904,0.606445354405,0.467055088416,0.5348212457,-0.101280342891,-0.113678124978,3.54584375318,-9.17456923895,1.17631370824
1471539672746884667,-0.165937262193,-0.620115342206,0.60804718903,0.467119260243,0.51345888495,-0.171470853481,-0.0532150924595,3.40287972294,-9.23782196291,1.34851360812
1471539672748352692,-0.165937262193,-0.620115342206,0.60804718903,0.467119260243,0.51345888495,-0.171470853481,-0.0532150924595,3.40287972294,-9.23782196291,1.34851360812
1471539672763384834,-0.164100073764,-0.619235110345,0.609517202922,0.467020152937,0.459480772973,-0.202942109773,-0.0473022962629,3.51943815066,-9.18124392911,1.62885949549
1471539672764367797,-0.162226561457,-0.61872185784,0.610755363787,0.466737282627,0.383377421631,-0.256729357968,-0.063133296796,3.57681680253,-9.1606470789,1.59197666516
1471539672768538374,-0.162226561457,-0.61872185784,0.610755363787,0.466737282627,0.383377421631,-0.256729357968,-0.063133296796,3.57681680253,-9.1606470789,1.59197666516
1471539672769577953,-0.162226561457,-0.61872185784,0.610755363787,0.466737282627,0.383377421631,-0.256729357968,-0.063133296796,3.57681680253,-9.1606470789,1.59197666516
1471539672785011595,-0.158877135602,-0.61839199931,0.612367651293,0.466213739204,0.220871087483,-0.258064405324,-0.10223394032,3.61288753994,-9.12558858423,1.55171199226
1471539672786501699,-0.158877135602,-0.61839199931,0.612367651293,0.466213739204,0.220871087483,-0.258064405324,-0.10223394032,3.61288753994,-9.12558858423,1.55171199226
1471539672794013779,-0.157369346997,-0.618831588487,0.612480947161,0.465992964628,0.0955582067785,-0.257110704067,-0.160980292457,3.71390935542,-9.06007433188,1.38506137917
1471539672795488163,-0.157369346997,-0.618831588487,0.612480947161,0.465992964628,0.0955582067785,-0.257110704067,-0.160980292457,3.71390935542,-9.06007433188,1.38506137917
1471539672799993071,-0.157369346997,-0.618831588487,0.612480947161,0.465992964628,0.0955582067785,-0.257110704067,-0.160980292457,3.71390935542,-9.06007433188,1.38506137917
1471539672802096597,-0.157369346997,-0.618831588487,0.612480947161,0.465992964628,0.0955582067785,-0.257110704067,-0.160980292457,3.71390935542,-9.06007433188,1.38506137917
1471539672806973930,-0.156177037793,-0.619557444742,0.612170175605,0.465837934942,-0.0192642277974,-0.22373207135,-0.178527893251,3.58652415177,-9.16957083896,1.41065054955
1471539672807983004,-0.156177037793,-0.619557444742,0.612170175605,0.465837934942,-0.0192642277974,-0.22373207135,-0.178527893251,3.58652415177,-9.16957083896,1.41065054955
1471539672823033500,-0.154454946057,-0.621816881911,0.610729249297,0.4652926166,-0.177764976009,-0.232124437557,-0.164794999218,3.2359487725,-9.73657362316,1.73797113285
1471539672824488401,-0.154454946057,-0.621816881911,0.610729249297,0.4652926166,-0.177764976009,-0.232124437557,-0.164794999218,3.2359487725,-9.73657362316,1.73797113285
1471539672827089387,-0.154454946057,-0.621816881911,0.610729249297,0.4652926166,-0.177764976009,-0.232124437557,-0.164794999218,3.2359487725,-9.73657362316,1.73797113285
1471539672828698840,-0.154454946057,-0.621816881911,0.610729249297,0.4652926166,-0.177764976009,-0.232124437557,-0.164794999218,3.2359487725,-9.73657362316,1.73797113285
1471539672846001617,-0.153187600629,-0.624250019059,0.609478779229,0.464091683171,-0.169181888229,-0.239753814547,-0.0734329503586,3.17972524919,-10.3521730333,1.97899454659
1471539672847016891,-0.153187600629,-0.624250019059,0.609478779229,0.464091683171,-0.169181888229,-0.239753814547,-0.0734329503586,3.17972524919,-10.3521730333,1.97899454659
1471539672850219668,-0.153187600629,-0.624250019059,0.609478779229,0.464091683171,-0.169181888229,-0.239753814547,-0.0734329503586,3.17972524919,-10.3521730333,1.97899454659
1471539672853014695,-0.152804207057,-0.625125700478,0.609227821634,0.463368313823,-0.122833282528,-0.21114354621,-0.00839233607337,3.20689576256,-10.4869328697,1.99212906701
1471539672860980301,-0.152804207057,-0.625125700478,0.609227821634,0.463368313823,-0.122833282528,-0.21114354621,-0.00839233607337,3.20689576256,-10.4869328697,1.99212906701
1471539672862514730,-0.152804207057,-0.625125700478,0.609227821634,0.463368313823,-0.122833282528,-0.21114354621,-0.00839233607337,3.20689576256,-10.4869328697,1.99212906701
1471539672872315716,-0.15254412746,-0.625728910027,0.609252997489,0.462606101758,-0.0677108879223,-0.184249909107,0.0455856400378,3.22752740075,-10.6300584119,2.11583001856
1471539672873658865,-0.152463333393,-0.625941060031,0.609649240687,0.461823044756,0.00915527471019,-0.140190144,0.116729752555,3.30936319561,-10.7440278802,2.03064050447
1471539672883577716,-0.152619091411,-0.625717335738,0.610338421212,0.461164005844,0.0808715955431,-0.0644683945603,0.171470670739,3.41200717752,-10.7602767451,2.13556918324
1471539672884992886,-0.152619091411,-0.625717335738,0.610338421212,0.461164005844,0.0808715955431,-0.0644683945603,0.171470670739,3.41200717752,-10.7602767451,2.13556918324
1471539672887132164,-0.152619091411,-0.625717335738,0.610338421212,0.461164005844,0.0808715955431,-0.0644683945603,0.171470670739,3.41200717752,-10.7602767451,2.13556918324
1471539672888730420,-0.152619091411,-0.625717335738,0.610338421212,0.461164005844,0.0808715955431,-0.0644683945603,0.171470670739,3.41200717752,-10.7602767451,2.13556918324
1471539672905552155,-0.153753389178,-0.624151016755,0.612274355288,0.460342826008,0.173950271513,0.0982284976195,0.255394093811,3.36158088979,-10.694625,1.96684661651
1471539672907076974,-0.153753389178,-0.624151016755,0.612274355288,0.460342826008,0.173950271513,0.0982284976195,0.255394093811,3.36158088979,-10.694625,1.96684661651
1471539672910291905,-0.153753389178,-0.624151016755,0.612274355288,0.460342826008,0.173950271513,0.0982284976195,0.255394093811,3.36158088979,-10.694625,1.96684661651
1471539672911241235,-0.153753389178,-0.624151016755,0.612274355288,0.460342826008,0.173950271513,0.0982284976195,0.255394093811,3.36158088979,-10.694625,1.96684661651
1471539672921057464,-0.154738427839,-0.623015857891,0.613401189699,0.460050258386,0.18177043494,0.153350923076,0.298309507079,3.23554920756,-10.8185054495,1.95323841379
1471539672924072451,-0.15622099234,-0.621841646985,0.614513375507,0.459653433524,0.135803335603,0.20523088358,0.372886967843,3.09116073354,-10.8679036069,2.18351186512
1471539672932203300,-0.15622099234,-0.621841646985,0.614513375507,0.459653433524,0.135803335603,0.20523088358,0.372886967843,3.09116073354,-10.8679036069,2.18351186512
1471539672933701543,-0.158221102962,-0.620597857787,0.61561938559,0.459170070424,0.0932694572393,0.264740299894,0.449371863509,3.1277375401,-11.1328004323,2.10286042998
1471539672952590199,-0.160567198162,-0.619442617386,0.616562416139,0.458649981625,0.0291824730081,0.299835605024,0.478935880545,2.92768290416,-11.3646165306,2.21564523244
1471539672953080945,-0.160567198162,-0.619442617386,0.616562416139,0.458649981625,0.0291824730081,0.299835605024,0.478935880545,2.92768290416,-11.3646165306,2.21564523244
1471539672954696436,-0.163290531791,-0.618282557323,0.617435886069,0.458078386449,-0.0150680789297,0.342560376679,0.525666145951,2.77844536124,-11.9338065614,2.29271885075
1471539672956179774,-0.163290531791,-0.618282557323,0.617435886069,0.458078386449,-0.0150680789297,0.342560376679,0.525666145951,2.77844536124,-11.9338065614,2.29271885075
1471539672965717651,-0.166260046614,-0.616909764337,0.618509168963,0.4574126665,0.010299703713,0.374222568238,0.592805169257,2.46350500537,-12.8018485776,2.47781765304
1471539672966842055,-0.166260046614,-0.616909764337,0.618509168963,0.4574126665,0.010299703713,0.374222568238,0.592805169257,2.46350500537,-12.8018485776,2.47781765304
1471539672969839085,-0.166260046614,-0.616909764337,0.618509168963,0.4574126665,0.010299703713,0.374222568238,0.592805169257,2.46350500537,-12.8018485776,2.47781765304
1471539672971872723,-0.166260046614,-0.616909764337,0.618509168963,0.4574126665,0.010299703713,0.374222568238,0.592805169257,2.46350500537,-12.8018485776,2.47781765304
1471539672979216836,-0.169105373949,-0.61503977313,0.620151613954,0.456663361438,0.150490179626,0.375367140055,0.656129553754,2.18310907004,-13.872344321,2.82221375396
1471539672980670643,-0.169105373949,-0.61503977313,0.620151613954,0.456663361438,0.150490179626,0.375367140055,0.656129553754,2.18310907004,-13.872344321,2.82221375396
1471539672988679472,-0.171831570089,-0.612305780065,0.622757948833,0.455771960946,0.382615570519,0.388528373453,0.776293804592,2.24060220573,-14.6870539392,3.01142467843
1471539672989686106,-0.171831570089,-0.612305780065,0.622757948833,0.455771960946,0.382615570519,0.388528373453,0.776293804592,2.24060220573,-14.6870539392,3.01142467843
1471539673003190673,-0.177885729263,-0.60388326165,0.630740991892,0.453704170988,0.791747348976,0.527767987139,1.09349254437,1.68762210059,-14.9629639699,3.0087979448
1471539673004227264,-0.177885729263,-0.60388326165,0.630740991892,0.453704170988,0.791747348976,0.527767987139,1.09349254437,1.68762210059,-14.9629639699,3.0087979448
1471539673009202174,-0.177885729263,-0.60388326165,0.630740991892,0.453704170988,0.791747348976,0.527767987139,1.09349254437,1.68762210059,-14.9629639699,3.0087979448
1471539673010520315,-0.177885729263,-0.60388326165,0.630740991892,0.453704170988,0.791747348976,0.527767987139,1.09349254437,1.68762210059,-14.9629639699,3.0087979448
1471539673025715733,-0.185434196312,-0.593445537373,0.64089838109,0.450206417242,0.855647232666,0.559432307938,1.3921910725,1.24511976745,-13.8457968786,2.87864539462
1471539673026660082,-0.185434196312,-0.593445537373,0.64089838109,0.450206417242,0.855647232666,0.559432307938,1.3921910725,1.24511976745,-13.8457968786,2.87864539462
1471539673029843864,-0.185434196312,-0.593445537373,0.64089838109,0.450206417242,0.855647232666,0.559432307938,1.3921910725,1.24511976745,-13.8457968786,2.87864539462
1471539673032053126,-0.185434196312,-0.593445537373,0.64089838109,0.450206417242,0.855647232666,0.559432307938,1.3921910725,1.24511976745,-13.8457968786,2.87864539462
1471539673039192731,-0.190378656089,-0.588392865359,0.645854687134,0.447684628291,0.699624902611,0.602921024306,1.5426843545,1.2737677234,-13.3670901177,2.8950620273
1471539673040681615,-0.190378656089,-0.588392865359,0.645854687134,0.447684628291,0.699624902611,0.602921024306,1.5426843545,1.2737677234,-13.3670901177,2.8950620273
1471539673048675083,-0.196189973668,-0.583737777603,0.650479707722,0.444562538991,0.508697209878,0.621613875888,1.67715581795,1.1787381296,-13.1877730599,3.01901767255
1471539673049890427,-0.196189973668,-0.583737777603,0.650479707722,0.444562538991,0.508697209878,0.621613875888,1.67715581795,1.1787381296,-13.1877730599,3.01901767255
1471539673070748108,-0.210215096489,-0.575742463745,0.658273126424,0.437043155395,0.106241041057,0.689326970162,1.84500824084,1.00869079329,-12.9476589937,3.41555637008
1471539673073216289,-0.218186078056,-0.572287589389,0.661569259143,0.432675242798,-0.0432975726222,0.705731359921,1.92492996873,0.979460687234,-13.0115534015,3.49217530317
1471539673075169229,-0.218186078056,-0.572287589389,0.661569259143,0.432675242798,-0.0432975726222,0.705731359921,1.92492996873,0.979460687234,-13.0115534015,3.49217530317
1471539673076681470,-0.218186078056,-0.572287589389,0.661569259143,0.432675242798,-0.0432975726222,0.705731359921,1.92492996873,0.979460687234,-13.0115534015,3.49217530317
1471539673085696096,-0.226533710579,-0.568786519094,0.664685219549,0.428203144059,-0.0953692015919,0.757231460639,1.96765736724,0.922051175587,-13.1285745818,3.62584885842
1471539673087127242,-0.226533710579,-0.568786519094,0.664685219549,0.428203144059,-0.0953692015919,0.757231460639,1.96765736724,0.922051175587,-13.1285745818,3.62584885842
1471539673090198943,-0.226533710579,-0.568786519094,0.664685219549,0.428203144059,-0.0953692015919,0.757231460639,1.96765736724,0.922051175587,-13.1285745818,3.62584885842
1471539673092209551,-0.226533710579,-0.568786519094,0.664685219549,0.428203144059,-0.0953692015919,0.757231460639,1.96765736724,0.922051175587,-13.1285745818,3.62584885842
1471539673099620395,-0.235138359834,-0.56488514564,0.667929671191,0.423656320988,-0.0526438762306,0.809685705069,2.03632616898,1.00877518161,-13.4033517845,3.58372901816
1471539673100898327,-0.235138359834,-0.56488514564,0.667929671191,0.423656320988,-0.0526438762306,0.809685705069,2.03632616898,1.00877518161,-13.4033517845,3.58372901816
1471539673108887751,-0.24392774811,-0.560051158131,0.67161807421,0.419250660551,0.112536070151,0.911542168226,2.11892068358,1.07962324921,-13.4868230745,3.77075460553
1471539673110539555,-0.24392774811,-0.560051158131,0.67161807421,0.419250660551,0.112536070151,0.911542168226,2.11892068358,1.07962324921,-13.4868230745,3.77075460553
1471539673123083483,-0.261961364483,-0.546711140971,0.68094676785,0.410846286598,0.581377042504,1.13414301008,2.33828778348,1.19555362041,-12.6667997102,3.71559135417
1471539673124506431,-0.261961364483,-0.546711140971,0.68094676785,0.410846286598,0.581377042504,1.13414301008,2.33828778348,1.19555362041,-12.6667997102,3.71559135417
1471539673127497898,-0.261961364483,-0.546711140971,0.68094676785,0.410846286598,0.581377042504,1.13414301008,2.33828778348,1.19555362041,-12.6667997102,3.71559135417
1471539673128674569,-0.261961364483,-0.546711140971,0.68094676785,0.410846286598,0.581377042504,1.13414301008,2.33828778348,1.19555362041,-12.6667997102,3.71559135417
1471539673144579735,-0.280617477005,-0.529098332636,0.691777359684,0.403426412905,0.886949039027,1.35636443366,2.45198492402,1.06261223993,-10.8283924245,3.39217264938
1471539673146003099,-0.280617477005,-0.529098332636,0.691777359684,0.403426412905,0.886949039027,1.35636443366,2.45198492402,1.06261223993,-10.8283924245,3.39217264938
1471539673154055695,-0.290269462714,-0.519574614038,0.696953496039,0.400052101384,0.899538831908,1.44906626506,2.43997047027,0.867966983485,-9.91494441096,3.37801161397
1471539673155055165,-0.290269462714,-0.519574614038,0.696953496039,0.400052101384,0.899538831908,1.44906626506,2.43997047027,0.867966983485,-9.91494441096,3.37801161397
1471539673158993265,-0.290269462714,-0.519574614038,0.696953496039,0.400052101384,0.899538831908,1.44906626506,2.43997047027,0.867966983485,-9.91494441096,3.37801161397
1471539673160521340,-0.290269462714,-0.519574614038,0.696953496039,0.400052101384,0.899538831908,1.44906626506,2.43997047027,0.867966983485,-9.91494441096,3.37801161397
1471539673168518982,-0.300003163399,-0.510117343312,0.701603684685,0.396901332374,0.841933909178,1.51258176252,2.37034723365,0.815518806384,-9.10853012906,3.18839996032
1471539673170018191,-0.300003163399,-0.510117343312,0.701603684685,0.396901332374,0.841933909178,1.51258176252,2.37034723365,0.815518806384,-9.10853012906,3.18839996032
1471539673183034581,-0.319774498952,-0.492737397718,0.708449069341,0.391221219849,0.534455586448,1.58791675845,2.14526123511,0.600834835793,-8.04492874107,3.33077742224
1471539673184552269,-0.319774498952,-0.492737397718,0.708449069341,0.391221219849,0.534455586448,1.58791675845,2.14526123511,0.600834835793,-8.04492874107,3.33077742224
1471539673194636371,-0.329784897663,-0.484923816276,0.710723465457,0.388539533807,0.378428895534,1.61614316122,2.04321085129,0.584638360811,-7.69091528593,3.29132673335
1471539673196176912,-0.329784897663,-0.484923816276,0.710723465457,0.388539533807,0.378428895534,1.61614316122,2.04321085129,0.584638360811,-7.69091528593,3.29132673335
1471539673205505525,-0.339714067788,-0.477845010459,0.712172865933,0.386093650757,0.215726753364,1.62453117453,1.88946880532,0.530929111799,-7.53026015334,3.33079794682
1471539673207012476,-0.339714067788,-0.477845010459,0.712172865933,0.386093650757,0.215726753364,1.62453117453,1.88946880532,0.530929111799,-7.53026015334,3.33079794682
1471539673210157944,-0.339714067788,-0.477845010459,0.712172865933,0.386093650757,0.215726753364,1.62453117453,1.88946880532,0.530929111799,-7.53026015334,3.33079794682
1471539673211897373,-0.339714067788,-0.477845010459,0.712172865933,0.386093650757,0.215726753364,1.62453117453,1.88946880532,0.530929111799,-7.53026015334,3.33079794682
1471539673219528192,-0.349425538502,-0.471614479213,0.71281901648,0.383888819561,0.0511181189195,1.60468930772,1.7151273333,0.423874097374,-7.3824799809,3.18569408821
1471539673220501726,-0.349425538502,-0.471614479213,0.71281901648,0.383888819561,0.0511181189195,1.60468930772,1.7151273333,0.423874097374,-7.3824799809,3.18569408821
1471539673228529783,-0.35888698263,-0.466000291586,0.712927618877,0.381808947228,-0.0591290406339,1.57416765275,1.5884730658,0.0660629510494,-7.65222218805,3.24740256804
1471539673230079699,-0.35888698263,-0.466000291586,0.712927618877,0.381808947228,-0.0591290406339,1.57416765275,1.5884730658,0.0660629510494,-7.65222218805,3.24740256804
1471539673243217977,-0.376035860735,-0.455330410387,0.713152780722,0.377735833839,0.0122072348346,1.37255096672,1.45552201598,-0.734452689559,-8.31394801129,3.32646090361
1471539673244712002,-0.376035860735,-0.455330410387,0.713152780722,0.377735833839,0.0122072348346,1.37255096672,1.45552201598,-0.734452689559,-8.31394801129,3.32646090361
1471539673247364157,-0.376035860735,-0.455330410387,0.713152780722,0.377735833839,0.0122072348346,1.37255096672,1.45552201598,-0.734452689559,-8.31394801129,3.32646090361
1471539673248939699,-0.376035860735,-0.455330410387,0.713152780722,0.377735833839,0.0122072348346,1.37255096672,1.45552201598,-0.734452689559,-8.31394801129,3.32646090361
1471539673265774877,-0.38996049663,-0.443556085666,0.715137549701,0.373854376657,0.336461139069,1.1366054012,1.43091352908,-0.699527099144,-8.22192799268,3.308253917
1471539673266766826,-0.38996049663,-0.443556085666,0.715137549701,0.373854376657,0.336461139069,1.1366054012,1.43091352908,-0.699527099144,-8.22192799268,3.308253917
1471539673272715199,-0.38996049663,-0.443556085666,0.715137549701,0.373854376657,0.336461139069,1.1366054012,1.43091352908,-0.699527099144,-8.22192799268,3.308253917
1471539673273721725,-0.396162703115,-0.437060925156,0.716592033263,0.372194462916,0.466162636126,1.10799457989,1.40306561021,-0.475853185148,-7.97323321893,3.0863019028
1471539673279218937,-0.396162703115,-0.437060925156,0.716592033263,0.372194462916,0.466162636126,1.10799457989,1.40306561021,-0.475853185148,-7.97323321893,3.0863019028
1471539673280727324,-0.396162703115,-0.437060925156,0.716592033263,0.372194462916,0.466162636126,1.10799457989,1.40306561021,-0.475853185148,-7.97323321893,3.0863019028
1471539673288726019,-0.401967223774,-0.430390822276,0.718016838723,0.370995836124,0.555045993509,1.10780313756,1.31360885131,-0.700963226578,-7.46826243258,2.80450374296
1471539673289723633,-0.401967223774,-0.430390822276,0.718016838723,0.370995836124,0.555045993509,1.10780313756,1.31360885131,-0.700963226578,-7.46826243258,2.80450374296
1471539673303724764,-0.412030601326,-0.417632871956,0.720495765312,0.36972884659,0.605398884006,1.01681835244,1.07136910254,-1.5030413065,-6.69187063384,2.46709056979
1471539673304720040,-0.412030601326,-0.417632871956,0.720495765312,0.36972884659,0.605398884006,1.01681835244,1.07136910254,-1.5030413065,-6.69187063384,2.46709056979
1471539673314853107,-0.416226070729,-0.411970857533,0.721497920277,0.369427424031,0.566105855308,0.912674028858,0.934608723386,-1.72597574525,-6.54054306948,2.37285111802
1471539673316396554,-0.416226070729,-0.411970857533,0.721497920277,0.369427424031,0.566105855308,0.912674028858,0.934608723386,-1.72597574525,-6.54054306948,2.37285111802
1471539673325753561,-0.419823358382,-0.406740334034,0.722482738342,0.36922803418,0.555233004888,0.804715921547,0.833326347769,-1.69198921904,-6.78783499534,2.39806565037
1471539673326718689,-0.419823358382,-0.406740334034,0.722482738342,0.36922803418,0.555233004888,0.804715921547,0.833326347769,-1.69198921904,-6.78783499534,2.39806565037
1471539673329981525,-0.419823358382,-0.406740334034,0.722482738342,0.36922803418,0.555233004888,0.804715921547,0.833326347769,-1.69198921904,-6.78783499534,2.39806565037
1471539673330896082,-0.419823358382,-0.406740334034,0.722482738342,0.36922803418,0.555233004888,0.804715921547,0.833326347769,-1.69198921904,-6.78783499534,2.39806565037
1471539673339278678,-0.422796753621,-0.40171770189,0.723635251639,0.369076978016,0.588992731869,0.689129125726,0.77057339273,-1.72042307171,-7.10294004446,2.46260912793
1471539673340710911,-0.422796753621,-0.40171770189,0.723635251639,0.369076978016,0.588992731869,0.689129125726,0.77057339273,-1.72042307171,-7.10294004446,2.46260912793
1471539673348729266,-0.425352473502,-0.396683290109,0.725098156799,0.368714393047,0.628665686938,0.586513042274,0.791554187134,-1.68292361849,-7.22860832385,2.42982394337
1471539673350214198,-0.425352473502,-0.396683290109,0.725098156799,0.368714393047,0.628665686938,0.586513042274,0.791554187134,-1.68292361849,-7.22860832385,2.42982394337
1471539673363227207,-0.429610052859,-0.386169929074,0.728755851208,0.367726661655,0.732235580632,0.487330531001,0.825696230413,-1.26287264005,-7.29501489225,2.55821037704
1471539673364724472,-0.429610052859,-0.386169929074,0.728755851208,0.367726661655,0.732235580632,0.487330531001,0.825696230413,-1.26287264005,-7.29501489225,2.55821037704
1471539673367610779,-0.429610052859,-0.386169929074,0.728755851208,0.367726661655,0.732235580632,0.487330531001,0.825696230413,-1.26287264005,-7.29501489225,2.55821037704
1471539673370616665,-0.429610052859,-0.386169929074,0.728755851208,0.367726661655,0.732235580632,0.487330531001,0.825696230413,-1.26287264005,-7.29501489225,2.55821037704
1471539673385623111,-0.432871259376,-0.376023566645,0.732645512663,0.366686927649,0.7223166564,0.36735724326,0.763134127873,-1.58400989121,-7.05620752918,2.80833529685
1471539673387114368,-0.432871259376,-0.376023566645,0.732645512663,0.366686927649,0.7223166564,0.36735724326,0.763134127873,-1.58400989121,-7.05620752918,2.80833529685
1471539673389807606,-0.432871259376,-0.376023566645,0.732645512663,0.366686927649,0.7223166564,0.36735724326,0.763134127873,-1.58400989121,-7.05620752918,2.80833529685
1471539673391262092,-0.432871259376,-0.376023566645,0.732645512663,0.366686927649,0.7223166564,0.36735724326,0.763134127873,-1.58400989121,-7.05620752918,2.80833529685
1471539673399644733,-0.434015398238,-0.371393764596,0.73462574807,0.366090584397,0.69351509225,0.288583150323,0.720218093602,-1.67091411293,-6.92390456953,2.85369395891
1471539673400610150,-0.434015398238,-0.371393764596,0.73462574807,0.366090584397,0.69351509225,0.288583150323,0.720218093602,-1.67091411293,-6.92390456953,2.85369395891
1471539673408625839,-0.434791609713,-0.366921283373,0.736633928314,0.365643930058,0.712397670768,0.231743820611,0.659373158727,-1.87953707548,-6.94458265896,2.97099818658
1471539673409628584,-0.434791609713,-0.366921283373,0.736633928314,0.365643930058,0.712397670768,0.231743820611,0.659373158727,-1.87953707548,-6.94458265896,2.97099818658
1471539673431098238,-0.435117480025,-0.358013961192,0.740887082556,0.365492972668,0.816157754401,0.130463169902,0.528909897862,-2.19037543995,-6.72645099361,3.0712561223
1471539673432752386,-0.434512785094,-0.353945304054,0.743002754715,0.365880127657,0.834086564665,0.0495912432685,0.408937021414,-2.42510571802,-6.56791329121,3.09690992891
1471539673435103853,-0.434512785094,-0.353945304054,0.743002754715,0.365880127657,0.834086564665,0.0495912432685,0.408937021414,-2.42510571802,-6.56791329121,3.09690992891
1471539673436612707,-0.434512785094,-0.353945304054,0.743002754715,0.365880127657,0.834086564665,0.0495912432685,0.408937021414,-2.42510571802,-6.56791329121,3.09690992891
1471539673445616377,-0.43357530057,-0.349985794503,0.745178029412,0.366377001001,0.855830416293,-0.00553133097225,0.364114166415,-2.5165443359,-6.26001882237,2.91625251576
1471539673446597316,-0.43357530057,-0.349985794503,0.745178029412,0.366377001001,0.855830416293,-0.00553133097225,0.364114166415,-2.5165443359,-6.26001882237,2.91625251576
1471539673452683117,-0.43275743011,-0.346165648497,0.747227599399,0.366798671183,0.811007305281,0.00782015510737,0.362397431805,-2.4219600479,-6.03891900878,2.82594997857
1471539673453618771,-0.43275743011,-0.346165648497,0.747227599399,0.366798671183,0.811007305281,0.00782015510737,0.362397431805,-2.4219600479,-6.03891900878,2.82594997857
1471539673468126998,-0.431861091647,-0.342668653116,0.749169166434,0.367178092697,0.757410291988,-0.0209808945149,0.327301954433,-2.80236600875,-5.94935634579,3.04963599315
1471539673469129927,-0.431861091647,-0.342668653116,0.749169166434,0.367178092697,0.757410291988,-0.0209808945149,0.327301954433,-2.80236600875,-5.94935634579,3.04963599315
1471539673471614113,-0.431861091647,-0.342668653116,0.749169166434,0.367178092697,0.757410291988,-0.0209808945149,0.327301954433,-2.80236600875,-5.94935634579,3.04963599315
1471539673473634362,-0.430745343152,-0.339600864926,0.751098354424,0.367397555621,0.694467316569,-0.0953676622588,0.298310047546,-2.95560607548,-6.13657801953,3.28813258404
1471539673483624839,-0.429392853313,-0.336826272489,0.753084210021,0.367469743383,0.658990442161,-0.167274853191,0.283241912188,-2.91518672871,-6.3495236755,3.37851115459
1471539673485137706,-0.429392853313,-0.336826272489,0.753084210021,0.367469743383,0.658990442161,-0.167274853191,0.283241912188,-2.91518672871,-6.3495236755,3.37851115459
1471539673487696655,-0.429392853313,-0.336826272489,0.753084210021,0.367469743383,0.658990442161,-0.167274853191,0.283241912188,-2.91518672871,-6.3495236755,3.37851115459
1471539673489346659,-0.429392853313,-0.336826272489,0.753084210021,0.367469743383,0.658990442161,-0.167274853191,0.283241912188,-2.91518672871,-6.3495236755,3.37851115459
1471539673505604366,-0.425618190767,-0.331514808762,0.757294588848,0.368038031948,0.732233107494,-0.27809217784,0.177002428694,-2.572768548,-6.56392046862,3.62442870167
1471539673507110005,-0.425618190767,-0.331514808762,0.757294588848,0.368038031948,0.732233107494,-0.27809217784,0.177002428694,-2.572768548,-6.56392046862,3.62442870167
1471539673509766170,-0.425618190767,-0.331514808762,0.757294588848,0.368038031948,0.732233107494,-0.27809217784,0.177002428694,-2.572768548,-6.56392046862,3.62442870167
1471539673511344336,-0.425618190767,-0.331514808762,0.757294588848,0.368038031948,0.732233107494,-0.27809217784,0.177002428694,-2.572768548,-6.56392046862,3.62442870167
1471539673519114393,-0.423439946973,-0.328713553007,0.759404790613,0.368714490318,0.783731851605,-0.260163116473,0.148010687964,-2.59978924196,-6.56208116924,3.99642762754
1471539673520618465,-0.423439946973,-0.328713553007,0.759404790613,0.368714490318,0.783731851605,-0.260163116473,0.148010687964,-2.59978924196,-6.56208116924,3.99642762754
1471539673528599222,-0.421408301624,-0.325742470159,0.761545001931,0.369264263762,0.789835429029,-0.236321201779,0.193596464734,-2.50836323891,-6.25014477935,4.17274560552
1471539673529681355,-0.421408301624,-0.325742470159,0.761545001931,0.369264263762,0.789835429029,-0.236321201779,0.193596464734,-2.50836323891,-6.25014477935,4.17274560552
1471539673542624261,-0.419838033322,-0.32276916317,0.763496254948,0.36963436226,0.728609039541,-0.161552842013,0.237274776227,-2.39650618676,-6.21325471828,4.29707461622
1471539673544111499,-0.418634326986,-0.320016883858,0.765256781595,0.369752014919,0.63419471075,-0.122070560866,0.266838616643,-2.4479086479,-6.13753534222,4.67806984706
1471539673549607309,-0.418634326986,-0.320016883858,0.765256781595,0.369752014919,0.63419471075,-0.122070560866,0.266838616643,-2.4479086479,-6.13753534222,4.67806984706
1471539673550620521,-0.418634326986,-0.320016883858,0.765256781595,0.369752014919,0.63419471075,-0.122070560866,0.266838616643,-2.4479086479,-6.13753534222,4.67806984706
1471539673565687341,-0.417197622493,-0.315932841192,0.767797559184,0.369620740427,0.384140317333,-0.0698090149671,0.191497953626,-2.47874536459,-6.58008815904,4.82127571161
1471539673567233675,-0.417197622493,-0.315932841192,0.767797559184,0.369620740427,0.384140317333,-0.0698090149671,0.191497953626,-2.47874536459,-6.58008815904,4.82127571161
1471539673569808904,-0.417197622493,-0.315932841192,0.767797559184,0.369620740427,0.384140317333,-0.0698090149671,0.191497953626,-2.47874536459,-6.58008815904,4.82127571161
1471539673571534676,-0.417197622493,-0.315932841192,0.767797559184,0.369620740427,0.384140317333,-0.0698090149671,0.191497953626,-2.47874536459,-6.58008815904,4.82127571161
1471539673579254185,-0.416386143319,-0.314476874839,0.768737062892,0.369824557025,0.36106132107,-0.0839233921135,0.109863349676,-2.74831557006,-7.02667956132,5.08587240254
1471539673580252107,-0.416386143319,-0.314476874839,0.768737062892,0.369824557025,0.36106132107,-0.0839233921135,0.109863349676,-2.74831557006,-7.02667956132,5.08587240254
1471539673588648608,-0.415200662148,-0.313192141026,0.769635556966,0.370378458345,0.388908658481,-0.128555387845,0.0152587997442,-2.9303188322,-7.19350063064,5.3726753059
1471539673589648503,-0.415200662148,-0.313192141026,0.769635556966,0.370378458345,0.388908658481,-0.128555387845,0.0152587997442,-2.9303188322,-7.19350063064,5.3726753059
1471539673602981870,-0.413623041358,-0.312001808452,0.770571441229,0.371201434727,0.428009424606,-0.182151961006,-0.0556946310093,-2.91054371039,-7.35627374395,5.3772997428
1471539673603973999,-0.411808490179,-0.310763218978,0.771550390025,0.372223030989,0.472069325897,-0.206184622745,-0.0938416599358,-3.00375994632,-7.39998784714,5.64249835374
1471539673608984460,-0.411808490179,-0.310763218978,0.771550390025,0.372223030989,0.472069325897,-0.206184622745,-0.0938416599358,-3.00375994632,-7.39998784714,5.64249835374
1471539673610476589,-0.411808490179,-0.310763218978,0.771550390025,0.372223030989,0.472069325897,-0.206184622745,-0.0938416599358,-3.00375994632,-7.39998784714,5.64249835374
1471539673625484239,-0.407654853418,-0.307903713662,0.773677515299,0.374747816431,0.568009348405,-0.219154715016,-0.142860645385,-2.62264084107,-7.4177040063,5.67201650385
1471539673626972107,-0.407654853418,-0.307903713662,0.773677515299,0.374747816431,0.568009348405,-0.219154715016,-0.142860645385,-2.62264084107,-7.4177040063,5.67201650385
1471539673637153159,-0.405666842061,-0.306325335838,0.774616273456,0.376256336522,0.57468506378,-0.173950474002,-0.154876957116,-2.29647539985,-7.31565092293,5.74204678871
1471539673638671312,-0.405666842061,-0.306325335838,0.774616273456,0.376256336522,0.57468506378,-0.173950474002,-0.154876957116,-2.29647539985,-7.31565092293,5.74204678871
1471539673641657280,-0.405666842061,-0.306325335838,0.774616273456,0.376256336522,0.57468506378,-0.173950474002,-0.154876957116,-2.29647539985,-7.31565092293,5.74204678871
1471539673643240426,-0.404086929527,-0.304557639525,0.775366239683,0.377843343136,0.568009247102,-0.0762940560245,-0.140762533365,-2.27839029879,-7.3286265166,5.81137420939
1471539673648555012,-0.404086929527,-0.304557639525,0.775366239683,0.377843343136,0.568009247102,-0.0762940560245,-0.140762533365,-2.27839029879,-7.3286265166,5.81137420939
1471539673649988479,-0.404086929527,-0.304557639525,0.775366239683,0.377843343136,0.568009247102,-0.0762940560245,-0.140762533365,-2.27839029879,-7.3286265166,5.81137420939
1471539673662980085,-0.401971745546,-0.300687915689,0.776415753296,0.381030275931,0.52528444696,0.0627518456971,-0.0978471028651,-2.63219890756,-7.28172204975,5.78995992519
1471539673665014407,-0.401971745546,-0.300687915689,0.776415753296,0.381030275931,0.52528444696,0.0627518456971,-0.0978471028651,-2.63219890756,-7.28172204975,5.78995992519
1471539673669875447,-0.401971745546,-0.300687915689,0.776415753296,0.381030275931,0.52528444696,0.0627518456971,-0.0978471028651,-2.63219890756,-7.28172204975,5.78995992519
1471539673670872950,-0.401971745546,-0.300687915689,0.776415753296,0.381030275931,0.52528444696,0.0627518456971,-0.0978471028651,-2.63219890756,-7.28172204975,5.78995992519
1471539673685863638,-0.401099403877,-0.297136732574,0.776806754292,0.383927463006,0.412369116636,0.145340086437,-0.0894547251167,-3.05361592964,-7.42308604407,5.9578305197
1471539673686901898,-0.401099403877,-0.297136732574,0.776806754292,0.383927463006,0.412369116636,0.145340086437,-0.0894547251167,-3.05361592964,-7.42308604407,5.9578305197
1471539673689720923,-0.401099403877,-0.297136732574,0.776806754292,0.383927463006,0.412369116636,0.145340086437,-0.0894547251167,-3.05361592964,-7.42308604407,5.9578305197
1471539673691083046,-0.401099403877,-0.297136732574,0.776806754292,0.383927463006,0.412369116636,0.145340086437,-0.0894547251167,-3.05361592964,-7.42308604407,5.9578305197
1471539673708863472,-0.40082540988,-0.294228792012,0.776784744004,0.386489159264,0.33226034272,0.1863480797,-0.0848770680311,-2.98850508558,-7.65820906173,5.92797495735
1471539673710367828,-0.40082540988,-0.294228792012,0.776784744004,0.386489159264,0.33226034272,0.1863480797,-0.0848770680311,-2.98850508558,-7.65820906173,5.92797495735
1471539673714110329,-0.40082540988,-0.294228792012,0.776784744004,0.386489159264,0.33226034272,0.1863480797,-0.0848770680311,-2.98850508558,-7.65820906173,5.92797495735
1471539673715610500,-0.4009036896,-0.292500978389,0.77683048814,0.387625853115,0.356292978706,0.208473354243,-0.0274658399002,-3.19708731922,-7.85756697467,5.79070989866
1471539673723874746,-0.400871047835,-0.290617067549,0.776977991458,0.388779273943,0.396347369241,0.196075599413,-0.0160217415863,-3.45722249042,-8.04423268172,5.78353959899
1471539673724856529,-0.400871047835,-0.290617067549,0.776977991458,0.388779273943,0.396347369241,0.196075599413,-0.0160217415863,-3.45722249042,-8.04423268172,5.78353959899
1471539673729899769,-0.400871047835,-0.290617067549,0.776977991458,0.388779273943,0.396347369241,0.196075599413,-0.0160217415863,-3.45722249042,-8.04423268172,5.78353959899
1471539673731042637,-0.400871047835,-0.290617067549,0.776977991458,0.388779273943,0.396347369241,0.196075599413,-0.0160217415863,-3.45722249042,-8.04423268172,5.78353959899
1471539673745386859,-0.400212264905,-0.286299293571,0.777800737629,0.391010063893,0.49247794731,0.124549999843,0.0198364471418,-3.65193783582,-7.68847233584,5.42277556598
1471539673746862800,-0.400212264905,-0.286299293571,0.777800737629,0.391010063893,0.49247794731,0.124549999843,0.0198364471418,-3.65193783582,-7.68847233584,5.42277556598
1471539673752495242,-0.400212264905,-0.286299293571,0.777800737629,0.391010063893,0.49247794731,0.124549999843,0.0198364471418,-3.65193783582,-7.68847233584,5.42277556598
1471539673753506574,-0.400212264905,-0.286299293571,0.777800737629,0.391010063893,0.49247794731,0.124549999843,0.0198364471418,-3.65193783582,-7.68847233584,5.42277556598
1471539673768361525,-0.399126346249,-0.28256588437,0.778752786338,0.392936099755,0.408935840708,0.0720978301249,-0.00457764000793,-3.45624188534,-7.26375624814,5.31805314447
1471539673769851587,-0.399126346249,-0.28256588437,0.778752786338,0.392936099755,0.408935840708,0.0720978301249,-0.00457764000793,-3.45624188534,-7.26375624814,5.31805314447
1471539673773991728,-0.398742535139,-0.281156651061,0.778995592233,0.393854282085,0.336647203668,0.0831604423791,-0.0305175935336,-3.67548776756,-7.1630215571,5.45487470668
1471539673776552437,-0.398742535139,-0.281156651061,0.778995592233,0.393854282085,0.336647203668,0.0831604423791,-0.0305175935336,-3.67548776756,-7.1630215571,5.45487470668
1471539673783392261,-0.398435298672,-0.280263586207,0.779068184774,0.394657317799,0.231361448194,0.0614166416475,-0.0627517860311,-3.71249787316,-7.18070851786,5.28337348778
1471539673784418828,-0.398435298672,-0.280263586207,0.779068184774,0.394657317799,0.231361448194,0.0614166416475,-0.0627517860311,-3.71249787316,-7.18070851786,5.28337348778
1471539673787473914,-0.398435298672,-0.280263586207,0.779068184774,0.394657317799,0.231361448194,0.0614166416475,-0.0627517860311,-3.71249787316,-7.18070851786,5.28337348778
1471539673789082776,-0.398435298672,-0.280263586207,0.779068184774,0.394657317799,0.231361448194,0.0614166416475,-0.0627517860311,-3.71249787316,-7.18070851786,5.28337348778
1471539673805440054,-0.398436840894,-0.279543778967,0.778877367965,0.395541913243,0.0251770025115,0.0545501721082,-0.04138946625,-3.88176041287,-6.99546651094,5.0306445968
1471539673806894663,-0.398436840894,-0.279543778967,0.778877367965,0.395541913243,0.0251770025115,0.0545501721082,-0.04138946625,-3.88176041287,-6.99546651094,5.0306445968
1471539673813063120,-0.398436840894,-0.279543778967,0.778877367965,0.395541913243,0.0251770025115,0.0545501721082,-0.04138946625,-3.88176041287,-6.99546651094,5.0306445968
1471539673814103188,-0.398633470421,-0.27996773551,0.778619826682,0.39555099397,-0.0953674360793,0.0177383431108,-0.0419616718749,-4.04559259831,-7.07111178039,5.01336023288
1471539673828378031,-0.398811082839,-0.280785311504,0.778386169351,0.395252198491,-0.178337122186,-0.0354766895471,-0.0246048008149,-3.94507965371,-7.35398657787,5.02792465986
1471539673829368207,-0.398811082839,-0.280785311504,0.778386169351,0.395252198491,-0.178337122186,-0.0354766895471,-0.0246048008149,-3.94507965371,-7.35398657787,5.02792465986
1471539673834082160,-0.398769038873,-0.281844274943,0.778255849523,0.394797278361,-0.205230758969,-0.105857872888,-0.023651128357,-3.9148832641,-7.58621984146,5.05410705863
1471539673835545295,-0.398769038873,-0.281844274943,0.778255849523,0.394797278361,-0.205230758969,-0.105857872888,-0.023651128357,-3.9148832641,-7.58621984146,5.05410705863
1471539673850893383,-0.398411325541,-0.282939080016,0.778255988634,0.394374832915,-0.175857587996,-0.166320842443,-0.0391006567669,-3.89356562343,-7.8652703451,4.91595249768
1471539673854441946,-0.397744811737,-0.283779848366,0.778465064725,0.394030716317,-0.0938415732632,-0.206565902122,-0.0320434640411,-4.02199391375,-8.01074868594,4.88321310228
1471539673854770538,-0.397744811737,-0.283779848366,0.778465064725,0.394030716317,-0.0938415732632,-0.206565902122,-0.0320434640411,-4.02199391375,-8.01074868594,4.88321310228
1471539673855281518,-0.397744811737,-0.283779848366,0.778465064725,0.394030716317,-0.0938415732632,-0.206565902122,-0.0320434640411,-4.02199391375,-8.01074868594,4.88321310228
1471539673865895935,-0.396748150064,-0.28421590804,0.778979725702,0.393703962368,0.0139236486422,-0.249481266082,0.0028610236936,-3.87576494745,-8.00103281531,4.8093402147
1471539673866908556,-0.396748150064,-0.28421590804,0.778979725702,0.393703962368,0.0139236486422,-0.249481266082,0.0028610236936,-3.87576494745,-8.00103281531,4.8093402147
1471539673878569286,-0.395700367179,-0.284299760692,0.779554625381,0.393559971964,0.0907898170471,-0.224113518971,0.00419616801478,-3.71232504956,-7.79690067921,4.78523072334
1471539673880162097,-0.395700367179,-0.284299760692,0.779554625381,0.393559971964,0.0907898170471,-0.224113518971,0.00419616801478,-3.71232504956,-7.79690067921,4.78523072334
1471539673887876598,-0.394673017039,-0.284040000873,0.780148022324,0.393603291132,0.158691445456,-0.184631393271,0.00476837276011,-3.75061546446,-7.60144582384,4.94924550585
1471539673889385103,-0.394673017039,-0.284040000873,0.780148022324,0.393603291132,0.158691445456,-0.184631393271,0.00476837276011,-3.75061546446,-7.60144582384,4.94924550585
1471539673893011298,-0.394673017039,-0.284040000873,0.780148022324,0.393603291132,0.158691445456,-0.184631393271,0.00476837276011,-3.75061546446,-7.60144582384,4.94924550585
1471539673894089490,-0.39378771441,-0.283577812673,0.780724136625,0.39368094014,0.18081669085,-0.143241914376,0.0221252490914,-3.74469315084,-7.4656285421,5.16080315196
1471539673902528505,-0.39378771441,-0.283577812673,0.780724136625,0.39368094014,0.18081669085,-0.143241914376,0.0221252490914,-3.74469315084,-7.4656285421,5.16080315196
1471539673903987706,-0.393076874675,-0.282899685235,0.781266707991,0.393802830962,0.202369733214,-0.0938415728003,0.0394821251416,-3.76489244783,-7.36856953324,5.39290916027
1471539673915722593,-0.392473785634,-0.282153564341,0.781814305552,0.393852872726,0.199127238217,-0.0761032261002,0.0625610480223,-3.69285568143,-7.42744266467,5.51417566574
1471539673916709089,-0.392473785634,-0.282153564341,0.781814305552,0.393852872726,0.199127238217,-0.0761032261002,0.0625610480223,-3.69285568143,-7.42744266467,5.51417566574
1471539673925590245,-0.392051972756,-0.281322210514,0.782278478739,0.393945994054,0.196838415118,-0.0320434629263,0.0661850097346,-3.66417643448,-7.5116641188,5.60433585044
1471539673926591232,-0.392051972756,-0.281322210514,0.782278478739,0.393945994054,0.196838415118,-0.0320434629263,0.0661850097346,-3.66417643448,-7.5116641188,5.60433585044
1471539673929860961,-0.392051972756,-0.281322210514,0.782278478739,0.393945994054,0.196838415118,-0.0320434629263,0.0661850097346,-3.66417643448,-7.5116641188,5.60433585044
1471539673931365426,-0.392051972756,-0.281322210514,0.782278478739,0.393945994054,0.196838415118,-0.0320434629263,0.0661850097346,-3.66417643448,-7.5116641188,5.60433585044
1471539673948577162,-0.391911789071,-0.279030221781,0.783017072785,0.39424808008,0.212287955601,0.0762939642771,0.0936508411501,-3.86016227255,-7.45320611694,5.53298811363
1471539673949629815,-0.391911789071,-0.279030221781,0.783017072785,0.39424808008,0.212287955601,0.0762939642771,0.0936508411501,-3.86016227255,-7.45320611694,5.53298811363
1471539673952770039,-0.391911789071,-0.279030221781,0.783017072785,0.39424808008,0.212287955601,0.0762939642771,0.0936508411501,-3.86016227255,-7.45320611694,5.53298811363
1471539673954256905,-0.391955108757,-0.277856491478,0.783355504544,0.394361656813,0.208282523497,0.078773518502,0.106048610865,-4.02830170989,-7.43850236109,5.43219232826
1471539673962546000,-0.391955108757,-0.277856491478,0.783355504544,0.394361656813,0.208282523497,0.078773518502,0.106048610865,-4.02830170989,-7.43850236109,5.43219232826
1471539673964056446,-0.391819997375,-0.276897613655,0.783679616134,0.394526374866,0.191879306976,0.0377655097229,0.0701904423132,-3.99520872944,-7.41242660286,5.31041210332
1471539673969524615,-0.391819997375,-0.276897613655,0.783679616134,0.394526374866,0.191879306976,0.0377655097229,0.0701904423132,-3.99520872944,-7.41242660286,5.31041210332
1471539673971253352,-0.391819997375,-0.276897613655,0.783679616134,0.394526374866,0.191879306976,0.0377655097229,0.0701904423132,-3.99520872944,-7.41242660286,5.31041210332
1471539673985682360,-0.390869757953,-0.275725456163,0.784255311296,0.39514543126,0.165367148988,-0.0667572112408,-0.0297546427245,-3.90504608927,-7.28615550549,5.22020977059
1471539673987137714,-0.390869757953,-0.275725456163,0.784255311296,0.39514543126,0.165367148988,-0.0667572112408,-0.0297546427245,-3.90504608927,-7.28615550549,5.22020977059
1471539673992078577,-0.390869757953,-0.275725456163,0.784255311296,0.39514543126,0.165367148988,-0.0667572112408,-0.0297546427245,-3.90504608927,-7.28615550549,5.22020977059
1471539673992604629,-0.390869757953,-0.275725456163,0.784255311296,0.39514543126,0.165367148988,-0.0667572112408,-0.0297546427245,-3.90504608927,-7.28615550549,5.22020977059
1471539674008041950,-0.388842673083,-0.275139752751,0.78499371135,0.396086310273,0.194931082611,-0.14266971604,-0.0780105800274,-3.44790824725,-7.30186259034,5.24525393414
1471539674011524245,-0.388842673083,-0.275139752751,0.78499371135,0.396086310273,0.194931082611,-0.14266971604,-0.0780105800274,-3.44790824725,-7.30186259034,5.24525393414
1471539674013145566,-0.38793643838,-0.274812557029,0.785288578025,0.396617230463,0.180816689232,-0.110435509563,-0.0816345390205,-3.36938560444,-7.20485316745,5.28791950955
1471539674014725804,-0.38793643838,-0.274812557029,0.785288578025,0.396617230463,0.180816689232,-0.110435509563,-0.0816345390205,-3.36938560444,-7.20485316745,5.28791950955
1471539674022544909,-0.387421203751,-0.274271443238,0.785456492572,0.397162541769,0.177574183694,-0.0213623078128,-0.0558853231175,-3.41594930002,-7.2773381826,5.22390391057
1471539674024020743,-0.387421203751,-0.274271443238,0.785456492572,0.397162541769,0.177574183694,-0.0213623078128,-0.0558853231175,-3.41594930002,-7.2773381826,5.22390391057
1471539674029034532,-0.387421203751,-0.274271443238,0.785456492572,0.397162541769,0.177574183694,-0.0213623078128,-0.0558853231175,-3.41594930002,-7.2773381826,5.22390391057
1471539674030253604,-0.387421203751,-0.274271443238,0.785456492572,0.397162541769,0.177574183694,-0.0213623078128,-0.0558853231175,-3.41594930002,-7.2773381826,5.22390391057
1471539674045532072,-0.387597044522,-0.273486328269,0.785143470015,0.398150085798,0.0148773208034,0.145339980157,-0.0482559251701,-3.34405029542,-7.08659926403,5.22671282557
1471539674049077718,-0.387597044522,-0.273486328269,0.785143470015,0.398150085798,0.0148773208034,0.145339980157,-0.0482559251701,-3.34405029542,-7.08659926403,5.22671282557
1471539674050194796,-0.387597044522,-0.273486328269,0.785143470015,0.398150085798,0.0148773208034,0.145339980157,-0.0482559251701,-3.34405029542,-7.08659926403,5.22671282557
1471539674051141326,-0.387597044522,-0.273486328269,0.785143470015,0.398150085798,0.0148773208034,0.145339980157,-0.0482559251701,-3.34405029542,-7.08659926403,5.22671282557
1471539674068006244,-0.388501519302,-0.272578165349,0.784384273545,0.399385809324,0.0658035383963,0.165939357695,-0.0816345345902,-3.76619046537,-7.84771804968,5.16722826318
1471539674069496136,-0.388501519302,-0.272578165349,0.784384273545,0.399385809324,0.0658035383963,0.165939357695,-0.0816345345902,-3.76619046537,-7.84771804968,5.16722826318
1471539674073147029,-0.388859752776,-0.2718660731,0.784120971082,0.400039040191,0.119781516568,0.168800385609,-0.0457763757585,-3.98839662583,-8.46922878397,5.61694300068
1471539674074655647,-0.388859752776,-0.2718660731,0.784120971082,0.400039040191,0.119781516568,0.168800385609,-0.0457763757585,-3.98839662583,-8.46922878397,5.61694300068
1471539674083013562,-0.389108644819,-0.270807589428,0.784003337035,0.400744905836,0.194931085228,0.17089848568,-0.02136231071,-4.02503894281,-8.49891895662,5.3731774658
1471539674085224375,-0.389108644819,-0.270807589428,0.784003337035,0.400744905836,0.194931085228,0.17089848568,-0.02136231071,-4.02503894281,-8.49891895662,5.3731774658
1471539674088990752,-0.389108644819,-0.270807589428,0.784003337035,0.400744905836,0.194931085228,0.17089848568,-0.02136231071,-4.02503894281,-8.49891895662,5.3731774658
1471539674090514689,-0.389108644819,-0.270807589428,0.784003337035,0.400744905836,0.194931085228,0.17089848568,-0.02136231071,-4.02503894281,-8.49891895662,5.3731774658
1471539674105559461,-0.389162329466,-0.267975886025,0.784379312357,0.401859055118,0.302505636611,0.135231082192,0.0633240046374,-4.04966089967,-8.59471127636,5.3971033054
1471539674107021150,-0.389162329466,-0.267975886025,0.784379312357,0.401859055118,0.302505636611,0.135231082192,0.0633240046374,-4.04966089967,-8.59471127636,5.3971033054
1471539674110241848,-0.389162329466,-0.267975886025,0.784379312357,0.401859055118,0.302505636611,0.135231082192,0.0633240046374,-4.04966089967,-8.59471127636,5.3971033054
1471539674113852485,-0.389162329466,-0.267975886025,0.784379312357,0.401859055118,0.302505636611,0.135231082192,0.0633240046374,-4.04966089967,-8.59471127636,5.3971033054
1471539674128212972,-0.389249235385,-0.263657031662,0.785300665214,0.40283106586,0.431251962562,0.190544321362,0.144004967596,-4.0687835036,-8.00709173375,5.09039624769
1471539674129568012,-0.389249235385,-0.263657031662,0.785300665214,0.40283106586,0.431251962562,0.190544321362,0.144004967596,-4.0687835036,-8.00709173375,5.09039624769
1471539674133930647,-0.389337288305,-0.261267760543,0.785780030174,0.403367546309,0.435829617676,0.196838584438,0.148010408454,-4.11806503587,-7.29180443749,5.08388575643
1471539674134915377,-0.389337288305,-0.261267760543,0.785780030174,0.403367546309,0.435829617676,0.196838584438,0.148010408454,-4.11806503587,-7.29180443749,5.08388575643
1471539674141789558,-0.389337288305,-0.261267760543,0.785780030174,0.403367546309,0.435829617676,0.196838584438,0.148010408454,-4.11806503587,-7.29180443749,5.08388575643
1471539674143317066,-0.3896486365,-0.259359924563,0.786068942375,0.403735046085,0.319099638007,0.199127329396,0.1333237579,-3.99684229866,-6.89566527483,4.95479789867
1471539674150346595,-0.3896486365,-0.259359924563,0.786068942375,0.403735046085,0.319099638007,0.199127329396,0.1333237579,-3.99684229866,-6.89566527483,4.95479789867
1471539674152953675,-0.3896486365,-0.259359924563,0.786068942375,0.403735046085,0.319099638007,0.199127329396,0.1333237579,-3.99684229866,-6.89566527483,4.95479789867
1471539674164880568,-0.393183643863,-0.253801857168,0.785482873314,0.404978882446,0.449563744812,0.801661611984,0.218773701867,-3.57979112647,-9.8725544698,6.96321766963
1471539674166351010,-0.393183643863,-0.253801857168,0.785482873314,0.404978882446,0.449563744812,0.801661611984,0.218773701867,-3.57979112647,-9.8725544698,6.96321766963
1471539674169549569,-0.393183643863,-0.253801857168,0.785482873314,0.404978882446,0.449563744812,0.801661611984,0.218773701867,-3.57979112647,-9.8725544698,6.96321766963
1471539674171090387,-0.393183643863,-0.253801857168,0.785482873314,0.404978882446,0.449563744812,0.801661611984,0.218773701867,-3.57979112647,-9.8725544698,6.96321766963
1471539674187632056,-0.394313589892,-0.24838107242,0.785936386915,0.406358993273,0.446322026562,0.325109356528,0.154877557935,-4.96340840863,-7.34354847245,6.27291773258
1471539674188676190,-0.394313589892,-0.24838107242,0.785936386915,0.406358993273,0.446322026562,0.325109356528,0.154877557935,-4.96340840863,-7.34354847245,6.27291773258
1471539674192784489,-0.394086747396,-0.246420458939,0.786090886806,0.407472343385,0.422668820935,0.166511679005,-0.0160217423098,-4.19144417222,-8.14172389662,6.11725244926
1471539674194275831,-0.394086747396,-0.246420458939,0.786090886806,0.407472343385,0.422668820935,0.166511679005,-0.0160217423098,-4.19144417222,-8.14172389662,6.11725244926
1471539674202134428,-0.393544884975,-0.244767315906,0.786315092612,0.408558392039,0.401306437236,0.0850678094141,-0.0457763996847,-4.22026089377,-7.78499313388,5.69163535413
1471539674203626931,-0.393544884975,-0.244767315906,0.786315092612,0.408558392039,0.401306437236,0.0850678094141,-0.0457763996847,-4.22026089377,-7.78499313388,5.69163535413
1471539674212195209,-0.393544884975,-0.244767315906,0.786315092612,0.408558392039,0.401306437236,0.0850678094141,-0.0457763996847,-4.22026089377,-7.78499313388,5.69163535413
1471539674215351657,-0.393053804822,-0.242929007873,0.786569104118,0.409637947578,0.427246439639,0.105476464786,-0.0251770223359,-3.74938900422,-7.66736678119,5.31226958859
1471539674225018931,-0.39290479144,-0.240641937955,0.786827329506,0.410633700642,0.46348620672,0.191688739816,0.0402450986082,-3.77007540165,-7.14940065299,5.28250648531
1471539674229871917,-0.39290479144,-0.240641937955,0.786827329506,0.410633700642,0.46348620672,0.191688739816,0.0402450986082,-3.77007540165,-7.14940065299,5.28250648531
1471539674232363825,-0.39290479144,-0.240641937955,0.786827329506,0.410633700642,0.46348620672,0.191688739816,0.0402450986082,-3.77007540165,-7.14940065299,5.28250648531
1471539674233985129,-0.393025411684,-0.23806811147,0.787059077779,0.411573332661,0.480843199611,0.25711092149,0.082397565344,-3.65345718646,-7.02320672344,5.26734650289
1471539674247657724,-0.393237213917,-0.235448238029,0.787228892312,0.412552168712,0.480652489857,0.281906500003,0.0791550727344,-4.28653101272,-7.00134840772,5.99064443392
1471539674252488803,-0.393237213917,-0.235448238029,0.787228892312,0.412552168712,0.480652489857,0.281906500003,0.0791550727344,-4.28653101272,-7.00134840772,5.99064443392
1471539674253605930,-0.393057696326,-0.232862703535,0.787582208493,0.413515263957,0.514984800056,0.202369952911,0.0755311040082,-4.93462810768,-7.26959982023,6.2759696358
1471539674256010928,-0.393057696326,-0.232862703535,0.787582208493,0.413515263957,0.514984800056,0.202369952911,0.0755311040082,-4.93462810768,-7.26959982023,6.2759696358
1471539674270201758,-0.392489310361,-0.230523055944,0.788163735591,0.41425739321,0.501633251862,0.0925065122255,0.0917435719185,-5.36039291732,-7.49206016439,6.752052721
1471539674271272398,-0.392489310361,-0.230523055944,0.788163735591,0.41425739321,0.501633251862,0.0925065122255,0.0917435719185,-5.36039291732,-7.49206016439,6.752052721
1471539674272695791,-0.392489310361,-0.230523055944,0.788163735591,0.41425739321,0.501633251862,0.0925065122255,0.0917435719185,-5.36039291732,-7.49206016439,6.752052721
1471539674275493128,-0.391342662083,-0.228248620527,0.788897724308,0.415203406347,0.562287121623,-0.00667572905591,0.0404358445672,-5.38462825437,-7.61030247643,6.41809575557
1471539674285168687,-0.389722329684,-0.226213647456,0.789711932694,0.416291910575,0.578690407912,-0.101089623004,-0.0158310164327,-5.39445652117,-7.28964825096,6.04678309215
1471539674289511207,-0.389722329684,-0.226213647456,0.789711932694,0.416291910575,0.578690407912,-0.101089623004,-0.0158310164327,-5.39445652117,-7.28964825096,6.04678309215
1471539674292040741,-0.388123262739,-0.224572541605,0.79032990121,0.417499884708,0.515175475381,-0.109863411262,-0.0808716777347,-5.3653447412,-6.64676670006,5.5803942839
1471539674294496048,-0.388123262739,-0.224572541605,0.79032990121,0.417499884708,0.515175475381,-0.109863411262,-0.0808716777347,-5.3653447412,-6.64676670006,5.5803942839
1471539674307615227,-0.386631374646,-0.223436087189,0.790693013976,0.418804313171,0.422478098633,-0.111007789347,-0.151825086461,-5.10200992118,-6.1072800551,5.66197580407
1471539674319823211,-0.385175079821,-0.222880005415,0.790721636154,0.420385484036,0.334167753897,-0.115776156744,-0.267029027087,-5.61532740433,-6.37529258444,6.22728948942
1471539674320875565,-0.385175079821,-0.222880005415,0.790721636154,0.420385484036,0.334167753897,-0.115776156744,-0.267029027087,-5.61532740433,-6.37529258444,6.22728948942
1471539674323378169,-0.383225409845,-0.222563300407,0.790901469533,0.421993753569,0.346565621956,-0.224495177239,-0.299072589558,-6.02201867947,-7.1202121678,6.71495702309
1471539674330043924,-0.383225409845,-0.222563300407,0.790901469533,0.421993753569,0.346565621956,-0.224495177239,-0.299072589558,-6.02201867947,-7.1202121678,6.71495702309
1471539674331669805,-0.383225409845,-0.222563300407,0.790901469533,0.421993753569,0.346565621956,-0.224495177239,-0.299072589558,-6.02201867947,-7.1202121678,6.71495702309
1471539674333015357,-0.383225409845,-0.222563300407,0.790901469533,0.421993753569,0.346565621956,-0.224495177239,-0.299072589558,-6.02201867947,-7.1202121678,6.71495702309
1471539674335832574,-0.380773876304,-0.222336408111,0.791230173234,0.423712862346,0.38986265224,-0.31795549965,-0.333405047024,-6.07459005431,-7.26631224211,6.74992386224
1471539674345165497,-0.377810991107,-0.222217793789,0.791705407396,0.42553572708,0.430489470822,-0.414658444646,-0.368500512905,-5.88160160383,-6.9686339402,6.3781327017
1471539674357337364,-0.374685766612,-0.222057974093,0.79231049262,0.42725275391,0.448609377895,-0.451470407091,-0.344849385729,-5.57708663961,-7.01493630156,6.15019567128
1471539674358016396,-0.374685766612,-0.222057974093,0.79231049262,0.42725275391,0.448609377895,-0.451470407091,-0.344849385729,-5.57708663961,-7.01493630156,6.15019567128
1471539674360356407,-0.374685766612,-0.222057974093,0.79231049262,0.42725275391,0.448609377895,-0.451470407091,-0.344849385729,-5.57708663961,-7.01493630156,6.15019567128
1471539674367577086,-0.371414312652,-0.221696894487,0.793051230177,0.42891915514,0.495339608994,-0.469781076993,-0.316811355617,-5.04226383221,-7.25224554998,6.17056693746
1471539674372360367,-0.371414312652,-0.221696894487,0.793051230177,0.42891915514,0.495339608994,-0.469781076993,-0.316811355617,-5.04226383221,-7.25224554998,6.17056693746
1471539674373351423,-0.367679959934,-0.221546567073,0.793948372952,0.430551444973,0.506021063478,-0.574495078475,-0.334168452022,-5.01667526154,-7.33450252733,6.52107728716
1471539674375868383,-0.367679959934,-0.221546567073,0.793948372952,0.430551444973,0.506021063478,-0.574495078475,-0.334168452022,-5.01667526154,-7.33450252733,6.52107728716
1471539674382050813,-0.367679959934,-0.221546567073,0.793948372952,0.430551444973,0.506021063478,-0.574495078475,-0.334168452022,-5.01667526154,-7.33450252733,6.52107728716
1471539674385844768,-0.363350279979,-0.221685905588,0.794982312913,0.432244208126,0.521852561178,-0.701334746875,-0.379754550185,-4.92727597379,-7.56113500433,6.79961552789
1471539674389849322,-0.363350279979,-0.221685905588,0.794982312913,0.432244208126,0.521852561178,-0.701334746875,-0.379754550185,-4.92727597379,-7.56113500433,6.79961552789
1471539674394906862,-0.358186149105,-0.221863577771,0.796293924094,0.434045184168,0.608065955085,-0.852780076909,-0.412752423715,-4.99669908211,-7.43566749952,6.93493049519
1471539674405026072,-0.352429965021,-0.222416870315,0.797619132487,0.436036208411,0.613788798151,-0.972372682714,-0.494960202362,-4.75259743847,-6.87290192912,6.85361517359
1471539674409349777,-0.352429965021,-0.222416870315,0.797619132487,0.436036208411,0.613788798151,-0.972372682714,-0.494960202362,-4.75259743847,-6.87290192912,6.85361517359
1471539674413874939,-0.34627195496,-0.223084342982,0.798981635728,0.438129495575,0.639538753549,-1.04447188024,-0.534061589602,-4.3670950191,-6.72929933529,6.51425122995
1471539674414320560,-0.34627195496,-0.223084342982,0.798981635728,0.438129495575,0.639538753549,-1.04447188024,-0.534061589602,-4.3670950191,-6.72929933529,6.51425122995
1471539674427691434,-0.340015589544,-0.223706351155,0.80038034559,0.440154711111,0.652318192027,-1.06182905702,-0.521282344681,-4.40966989759,-6.40829356494,6.33380158326
1471539674432649754,-0.333720802926,-0.224198464764,0.801950794276,0.441860156216,0.662427179952,-1.08261925523,-0.447848839196,-3.93227002256,-6.33633008765,6.12767325586
1471539674434129103,-0.333720802926,-0.224198464764,0.801950794276,0.441860156216,0.662427179952,-1.08261925523,-0.447848839196,-3.93227002256,-6.33633008765,6.12767325586
1471539674436629860,-0.333720802926,-0.224198464764,0.801950794276,0.441860156216,0.662427179952,-1.08261925523,-0.447848839196,-3.93227002256,-6.33633008765,6.12767325586
1471539674442277972,-0.333720802926,-0.224198464764,0.801950794276,0.441860156216,0.662427179952,-1.08261925523,-0.447848839196,-3.93227002256,-6.33633008765,6.12767325586
1471539674446121005,-0.327513041483,-0.224654128705,0.80352082079,0.443418561488,0.650792091769,-1.07193773615,-0.418093864349,-3.64634970724,-6.11360702338,6.46844875901
1471539674457753401,-0.321194362183,-0.225116909348,0.805114148911,0.444913211818,0.656323582901,-1.09482631963,-0.411227446886,-3.53211594073,-6.24077838875,6.93090282086
1471539674458798927,-0.321194362183,-0.225116909348,0.805114148911,0.444913211818,0.656323582901,-1.09482631963,-0.411227446886,-3.53211594073,-6.24077838875,6.93090282086
1471539674465273475,-0.314731776785,-0.225823964619,0.806626209699,0.446432081633,0.627713342179,-1.13335541757,-0.444606441999,-3.13916700426,-6.38578964432,7.04919429616
1471539674469639271,-0.314731776785,-0.225823964619,0.806626209699,0.446432081633,0.627713342179,-1.13335541757,-0.444606441999,-3.13916700426,-6.38578964432,7.04919429616
1471539674470654739,-0.314731776785,-0.225823964619,0.806626209699,0.446432081633,0.627713342179,-1.13335541757,-0.444606441999,-3.13916700426,-6.38578964432,7.04919429616
1471539674473648042,-0.314731776785,-0.225823964619,0.806626209699,0.446432081633,0.627713342179,-1.13335541757,-0.444606441999,-3.13916700426,-6.38578964432,7.04919429616
1471539674487812058,-0.301834749458,-0.226889209632,0.809444878406,0.449684399767,0.666432715931,-1.08872293719,-0.45662275957,-2.70573649452,-6.24253401304,6.51643837271
1471539674499640094,-0.295790447314,-0.227374531204,0.810668734574,0.451248309273,0.615887056853,-1.02616053449,-0.444796722385,-2.2619107092,-5.93682300951,6.25565718042
1471539674501089716,-0.295790447314,-0.227374531204,0.810668734574,0.451248309273,0.615887056853,-1.02616053449,-0.444796722385,-2.2619107092,-5.93682300951,6.25565718042
1471539674503632487,-0.295790447314,-0.227374531204,0.810668734574,0.451248309273,0.615887056853,-1.02616053449,-0.444796722385,-2.2619107092,-5.93682300951,6.25565718042
1471539674511508895,-0.290447658763,-0.227720197597,0.811600172201,0.452867342175,0.565150431339,-0.880055379749,-0.439836953988,-1.85005320275,-5.80184840558,6.51348363268
1471539674512827490,-0.285271566616,-0.228043657023,0.812465309569,0.454440694172,0.54798401549,-0.849155877814,-0.429537070269,-1.94594244849,-6.13072583467,7.22736058908
1471539674514265810,-0.285271566616,-0.228043657023,0.812465309569,0.454440694172,0.54798401549,-0.849155877814,-0.429537070269,-1.94594244849,-6.13072583467,7.22736058908
1471539674515635149,-0.285271566616,-0.228043657023,0.812465309569,0.454440694172,0.54798401549,-0.849155877814,-0.429537070269,-1.94594244849,-6.13072583467,7.22736058908
1471539674525293861,-0.279840657965,-0.228677210017,0.813281916294,0.456035595538,0.519755372213,-0.914960191011,-0.466730787451,-1.93076730127,-6.16660149018,7.48581736778
1471539674529135170,-0.279840657965,-0.228677210017,0.813281916294,0.456035595538,0.519755372213,-0.914960191011,-0.466730787451,-1.93076730127,-6.16660149018,7.48581736778
1471539674530633624,-0.279840657965,-0.228677210017,0.813281916294,0.456035595538,0.519755372213,-0.914960191011,-0.466730787451,-1.93076730127,-6.16660149018,7.48581736778
1471539674535642611,-0.273949072961,-0.229460745341,0.814138208386,0.457688375882,0.542453460046,-1.00308113445,-0.502017407468,-2.06393226898,-6.46680069223,7.54152688169
1471539674547837367,-0.267717902407,-0.230217393385,0.81505912087,0.45935357406,0.58155477053,-1.05896755854,-0.512126782182,-2.28339748568,-6.62729018459,7.47082261157
1471539674552135790,-0.267717902407,-0.230217393385,0.81505912087,0.45935357406,0.58155477053,-1.05896755854,-0.512126782182,-2.28339748568,-6.62729018459,7.47082261157
1471539674553633610,-0.267717902407,-0.230217393385,0.81505912087,0.45935357406,0.58155477053,-1.05896755854,-0.512126782182,-2.28339748568,-6.62729018459,7.47082261157
1471539674556619906,-0.261231777172,-0.230870971749,0.815969004857,0.461141123857,0.627904040956,-1.0847175823,-0.539402377832,-1.82297057383,-6.64750995265,7.20263052061
1471539674570289618,-0.254884530168,-0.231203490625,0.816813231668,0.463028041027,0.669675093709,-1.02444458226,-0.538448530202,-1.89447746031,-6.25973652013,7.03791196869
1471539674571335827,-0.254884530168,-0.231203490625,0.816813231668,0.463028041027,0.669675093709,-1.02444458226,-0.538448530202,-1.89447746031,-6.25973652013,7.03791196869
1471539674572749189,-0.254884530168,-0.231203490625,0.816813231668,0.463028041027,0.669675093709,-1.02444458226,-0.538448530202,-1.89447746031,-6.25973652013,7.03791196869
1471539674575623050,-0.248974409608,-0.231390408811,0.817493024396,0.464946639019,0.646976875474,-0.929838522386,-0.531009322323,-1.58141061669,-6.09162209033,6.90590849695
1471539674585288040,-0.243600264972,-0.231489548112,0.817915315056,0.46699682806,0.606158758009,-0.815014591874,-0.547412094238,-1.54691414478,-5.79138347394,7.29130028452
1471539674597127206,-0.238316394871,-0.231615330926,0.818357154133,0.468882930693,0.586322067489,-0.811199659411,-0.515940531085,-1.50252270502,-6.18729383469,7.49833910841
1471539674598148761,-0.238316394871,-0.231615330926,0.818357154133,0.468882930693,0.586322067489,-0.811199659411,-0.515940531085,-1.50252270502,-6.18729383469,7.49833910841
1471539674601345498,-0.238316394871,-0.231615330926,0.818357154133,0.468882930693,0.586322067489,-0.811199659411,-0.515940531085,-1.50252270502,-6.18729383469,7.49833910841
1471539674607795228,-0.232879148694,-0.231635191592,0.818854068215,0.470733953617,0.61893806154,-0.83065493313,-0.506976076294,-1.20112468109,-6.53221180386,7.73898544028
1471539674612703117,-0.232879148694,-0.231635191592,0.818854068215,0.470733953617,0.61893806154,-0.83065493313,-0.506976076294,-1.20112468109,-6.53221180386,7.73898544028
1471539674613725541,-0.227012224194,-0.231491856347,0.819556665195,0.472444539651,0.689129412648,-0.901800128148,-0.476840169283,-1.61446765673,-6.64763628575,7.98327571501
1471539674616162825,-0.227012224194,-0.231491856347,0.819556665195,0.472444539651,0.689129412648,-0.901800128148,-0.476840169283,-1.61446765673,-6.64763628575,7.98327571501
1471539674631587504,-0.220840147887,-0.231277899461,0.820356007687,0.47408457363,0.730901051787,-0.95272723217,-0.467112911228,-1.16584156606,-6.77124238547,7.60842131649
1471539674632096141,-0.220840147887,-0.231277899461,0.820356007687,0.47408457363,0.730901051787,-0.95272723217,-0.467112911228,-1.16584156606,-6.77124238547,7.60842131649
1471539674632400142,-0.220840147887,-0.231277899461,0.820356007687,0.47408457363,0.730901051787,-0.95272723217,-0.467112911228,-1.16584156606,-6.77124238547,7.60842131649
1471539674634854508,-0.214607096978,-0.23080618802,0.82105069135,0.475970650074,0.785070342463,-0.922209695289,-0.508884274464,-0.912542569303,-6.53377339893,7.64117052019
1471539674645010568,-0.208789507048,-0.229881313388,0.821669982377,0.477933011585,0.819783766206,-0.804143405846,-0.489810309822,-0.660542219717,-6.20920092508,6.98744863118
1471539674648853973,-0.208789507048,-0.229881313388,0.821669982377,0.477933011585,0.819783766206,-0.804143405846,-0.489810309822,-0.660542219717,-6.20920092508,6.98744863118
1471539674650346286,-0.208789507048,-0.229881313388,0.821669982377,0.477933011585,0.819783766206,-0.804143405846,-0.489810309822,-0.660542219717,-6.20920092508,6.98744863118
1471539674672446833,-0.199134585487,-0.227538648464,0.822583691689,0.481588673543,0.730517584732,-0.54798355638,-0.413324179142,0.0156971075331,-4.7264186522,7.34833039926
1471539674673472683,-0.199134585487,-0.227538648464,0.822583691689,0.481588673543,0.730517584732,-0.54798355638,-0.413324179142,0.0156971075331,-4.7264186522,7.34833039926
1471539674674848822,-0.194740737498,-0.226318527304,0.822957594681,0.483318494074,0.71106240762,-0.54226138006,-0.397493041169,-0.546305800405,-5.13417072315,8.60140809919
1471539674676359021,-0.194740737498,-0.226318527304,0.822957594681,0.483318494074,0.71106240762,-0.54226138006,-0.397493041169,-0.546305800405,-5.13417072315,8.60140809919
1471539674680437991,-0.194740737498,-0.226318527304,0.822957594681,0.483318494074,0.71106240762,-0.54226138006,-0.397493041169,-0.546305800405,-5.13417072315,8.60140809919
1471539674690075514,-0.189570414183,-0.225533025368,0.823533014394,0.484758998615,0.712398249763,-0.732997717226,-0.382425298735,-0.512820989859,-5.63176576975,9.1051070215
1471539674691582013,-0.189570414183,-0.225533025368,0.823533014394,0.484758998615,0.712398249763,-0.732997717226,-0.382425298735,-0.512820989859,-5.63176576975,9.1051070215
1471539674694162554,-0.184233903063,-0.224636884776,0.824084080812,0.486293704166,0.749210533761,-0.744442136779,-0.403597120529,-0.555383317458,-5.6642679607,8.42190529465
1471539674700846881,-0.184233903063,-0.224636884776,0.824084080812,0.486293704166,0.749210533761,-0.744442136779,-0.403597120529,-0.555383317458,-5.6642679607,8.42190529465
1471539674705051492,-0.178683598096,-0.223966214298,0.824643564188,0.487723588386,0.729374205818,-0.806622258474,-0.403406497203,-0.671811104187,-5.61442453737,8.18301020591
1471539674708614307,-0.178683598096,-0.223966214298,0.824643564188,0.487723588386,0.729374205818,-0.806622258474,-0.403406497203,-0.671811104187,-5.61442453737,8.18301020591
1471539674711564682,-0.178683598096,-0.223966214298,0.824643564188,0.487723588386,0.729374205818,-0.806622258474,-0.403406497203,-0.671811104187,-5.61442453737,8.18301020591
1471539674715544584,-0.173478836329,-0.22305840395,0.825250643909,0.488990200823,0.731090375607,-0.735477299333,-0.347902124996,-0.379175022019,-4.96023061847,7.41103586252
1471539674727813022,-0.169343498711,-0.221860839707,0.825788727877,0.490075018911,0.664903952429,-0.53634822554,-0.266838964271,-0.252742163626,-3.97413131735,6.97923913048
1471539674730119857,-0.169343498711,-0.221860839707,0.825788727877,0.490075018911,0.664903952429,-0.53634822554,-0.266838964271,-0.252742163626,-3.97413131735,6.97923913048
1471539674734070331,-0.166475505553,-0.220441438481,0.826095868164,0.491179289928,0.567628047124,-0.296593284032,-0.228882277066,0.027244996848,-3.29876918374,7.58994401361
1471539674750734480,-0.164254741505,-0.219166333969,0.826224423303,0.492280103483,0.472069399175,-0.197983044987,-0.222206404056,-0.442753041197,-3.22743674525,8.73774448171
1471539674751904028,-0.164254741505,-0.219166333969,0.826224423303,0.492280103483,0.472069399175,-0.197983044987,-0.222206404056,-0.442753041197,-3.22743674525,8.73774448171
1471539674754448245,-0.164254741505,-0.219166333969,0.826224423303,0.492280103483,0.472069399175,-0.197983044987,-0.222206404056,-0.442753041197,-3.22743674525,8.73774448171
1471539674755835208,-0.161572904472,-0.218705098411,0.826363243676,0.493138992547,0.375366721361,-0.365257759861,-0.228119206681,-0.386074272869,-4.41941383267,9.7563642074
1471539674765204999,-0.1583016242,-0.218571102862,0.82646123698,0.494094214233,0.380707525288,-0.489426608161,-0.284386232568,-0.333477850899,-5.11878403007,9.27204789788
1471539674766273850,-0.1583016242,-0.218571102862,0.82646123698,0.494094214233,0.380707525288,-0.489426608161,-0.284386232568,-0.333477850899,-5.11878403007,9.27204789788
1471539674768544426,-0.1583016242,-0.218571102862,0.82646123698,0.494094214233,0.380707525288,-0.489426608161,-0.284386232568,-0.333477850899,-5.11878403007,9.27204789788
1471539674769570008,-0.1583016242,-0.218571102862,0.82646123698,0.494094214233,0.380707525288,-0.489426608161,-0.284386232568,-0.333477850899,-5.11878403007,9.27204789788
1471539674787719157,-0.151213904377,-0.218116439117,0.826880243645,0.495811089811,0.451470424,-0.512696451082,-0.257492637262,-0.0760655672123,-5.65047059124,8.15406654667
1471539674788671375,-0.151213904377,-0.218116439117,0.826880243645,0.495811089811,0.451470424,-0.512696451082,-0.257492637262,-0.0760655672123,-5.65047059124,8.15406654667
1471539674792565817,-0.151213904377,-0.218116439117,0.826880243645,0.495811089811,0.451470424,-0.512696451082,-0.257492637262,-0.0760655672123,-5.65047059124,8.15406654667
1471539674794838283,-0.151213904377,-0.218116439117,0.826880243645,0.495811089811,0.451470424,-0.512696451082,-0.257492637262,-0.0760655672123,-5.65047059124,8.15406654667
1471539674809852887,-0.145332572754,-0.216583731444,0.827834311513,0.496649054415,0.440216647574,-0.344849089608,-0.0720978738228,0.163241752646,-4.57918575694,7.76988806619
1471539674811378683,-0.145332572754,-0.216583731444,0.827834311513,0.496649054415,0.440216647574,-0.344849089608,-0.0720978738228,0.163241752646,-4.57918575694,7.76988806619
1471539674819219776,-0.143347540499,-0.215761251473,0.828372559507,0.496686488292,0.35858183747,-0.261497712326,-0.0122070412756,-0.123186958905,-3.56786326499,8.31957368231
1471539674821854899,-0.143347540499,-0.215761251473,0.828372559507,0.496686488292,0.35858183747,-0.261497712326,-0.0122070412756,-0.123186958905,-3.56786326499,8.31957368231
1471539674825292430,-0.141851311877,-0.215316467534,0.828727322265,0.496717273163,0.239181621166,-0.213050933686,-0.0190734945108,-0.0962035589563,-2.65691872613,8.55803943624
1471539674826252604,-0.141851311877,-0.215316467534,0.828727322265,0.496717273163,0.239181621166,-0.213050933686,-0.0190734945108,-0.0962035589563,-2.65691872613,8.55803943624
1471539674828603223,-0.141851311877,-0.215316467534,0.828727322265,0.496717273163,0.239181621166,-0.213050933686,-0.0190734945108,-0.0962035589563,-2.65691872613,8.55803943624
1471539674829752121,-0.141851311877,-0.215316467534,0.828727322265,0.496717273163,0.239181621166,-0.213050933686,-0.0190734945108,-0.0962035589563,-2.65691872613,8.55803943624
1471539674847778375,-0.139673651463,-0.215908970224,0.828520058935,0.497422455873,-0.00267028891055,-0.226974557397,-0.150299118679,-0.0724163834784,-3.57675095415,9.36770121489
1471539674848817519,-0.139673651463,-0.215908970224,0.828520058935,0.497422455873,-0.00267028891055,-0.226974557397,-0.150299118679,-0.0724163834784,-3.57675095415,9.36770121489
1471539674852123354,-0.139673651463,-0.215908970224,0.828520058935,0.497422455873,-0.00267028891055,-0.226974557397,-0.150299118679,-0.0724163834784,-3.57675095415,9.36770121489
1471539674853612327,-0.139673651463,-0.215908970224,0.828520058935,0.497422455873,-0.00267028891055,-0.226974557397,-0.150299118679,-0.0724163834784,-3.57675095415,9.36770121489
1471539674870283113,-0.13646415522,-0.218213254385,0.827883808521,0.498366240369,-0.0280380506448,-0.410461802637,-0.226021020504,0.260479117307,-5.75363175897,9.57854394958
1471539674871791261,-0.13646415522,-0.218213254385,0.827883808521,0.498366240369,-0.0280380506448,-0.410461802637,-0.226021020504,0.260479117307,-5.75363175897,9.57854394958
1471539674874615614,-0.134007553773,-0.219462578933,0.827697057479,0.498794279258,0.0419617244353,-0.507927600778,-0.228119192839,0.658493853712,-6.46103912556,8.84372825541
1471539674875640751,-0.134007553773,-0.219462578933,0.827697057479,0.498794279258,0.0419617244353,-0.507927600778,-0.228119192839,0.658493853712,-6.46103912556,8.84372825541
1471539674884796285,-0.131271613692,-0.220262500301,0.827772044538,0.499044724129,0.151062217796,-0.524140119321,-0.172806021872,0.219638867341,-6.00834134773,7.84864946012
1471539674886257893,-0.131271613692,-0.220262500301,0.827772044538,0.499044724129,0.151062217796,-0.524140119321,-0.172806021872,0.219638867341,-6.00834134773,7.84864946012
1471539674888285612,-0.131271613692,-0.220262500301,0.827772044538,0.499044724129,0.151062217796,-0.524140119321,-0.172806021872,0.219638867341,-6.00834134773,7.84864946012
1471539674889756564,-0.131271613692,-0.220262500301,0.827772044538,0.499044724129,0.151062217796,-0.524140119321,-0.172806021872,0.219638867341,-6.00834134773,7.84864946012
1471539674915751827,-0.124015504653,-0.220641357296,0.828463731899,0.499585218941,0.255775705481,-0.402069490794,-0.105285749012,0.564174092133,-5.09672799733,9.09355693033
1471539674916781880,-0.124015504653,-0.220641357296,0.828463731899,0.499585218941,0.255775705481,-0.402069490794,-0.105285749012,0.564174092133,-5.09672799733,9.09355693033
1471539674918262315,-0.124015504653,-0.220641357296,0.828463731899,0.499585218941,0.255775705481,-0.402069490794,-0.105285749012,0.564174092133,-5.09672799733,9.09355693033
1471539674919853932,-0.124015504653,-0.220641357296,0.828463731899,0.499585218941,0.255775705481,-0.402069490794,-0.105285749012,0.564174092133,-5.09672799733,9.09355693033
1471539674931670600,-0.120992970686,-0.220581111761,0.828633968882,0.500070414836,0.332260652242,-0.477982316026,-0.19245177848,0.12275417623,-5.30286145072,8.92686030991
1471539674932245675,-0.120992970686,-0.220581111761,0.828633968882,0.500070414836,0.332260652242,-0.477982316026,-0.19245177848,0.12275417623,-5.30286145072,8.92686030991
1471539674934611165,-0.11762898464,-0.220622776355,0.828857060466,0.500484750858,0.35018988227,-0.549126727154,-0.193024052754,0.279910732047,-5.61173167228,8.83481357178
1471539674938149949,-0.11762898464,-0.220622776355,0.828857060466,0.500484750858,0.35018988227,-0.549126727154,-0.193024052754,0.279910732047,-5.61173167228,8.83481357178
1471539674944887520,-0.113778641324,-0.220565736704,0.82909101595,0.501012239214,0.41847334724,-0.61512148808,-0.229836090895,0.407181229098,-5.2567553245,7.1735412578
1471539674946328560,-0.113778641324,-0.220565736704,0.82909101595,0.501012239214,0.41847334724,-0.61512148808,-0.229836090895,0.407181229098,-5.2567553245,7.1735412578
1471539674948153635,-0.113778641324,-0.220565736704,0.82909101595,0.501012239214,0.41847334724,-0.61512148808,-0.229836090895,0.407181229098,-5.2567553245,7.1735412578
1471539674949154731,-0.113778641324,-0.220565736704,0.82909101595,0.501012239214,0.41847334724,-0.61512148808,-0.229836090895,0.407181229098,-5.2567553245,7.1735412578
1471539674967837419,-0.105841878121,-0.218729583613,0.830024805825,0.502009649114,0.638009968737,-0.512506064573,-0.163078781247,0.445264463997,-4.68243874304,4.80311408556
1471539674968879686,-0.105841878121,-0.218729583613,0.830024805825,0.502009649114,0.638009968737,-0.512506064573,-0.163078781247,0.445264463997,-4.68243874304,4.80311408556
1471539674972659005,-0.105841878121,-0.218729583613,0.830024805825,0.502009649114,0.638009968737,-0.512506064573,-0.163078781247,0.445264463997,-4.68243874304,4.80311408556
1471539674973697991,-0.105841878121,-0.218729583613,0.830024805825,0.502009649114,0.638009968737,-0.512506064573,-0.163078781247,0.445264463997,-4.68243874304,4.80311408556
1471539674998288678,-0.0933975965868,-0.215504264776,0.830912921274,0.504399165419,0.421333996053,-0.33721978498,-0.3128056829,1.06702472034,0.24333752652,10.4225454608
1471539674999907982,-0.0933975965868,-0.215504264776,0.830912921274,0.504399165419,0.421333996053,-0.33721978498,-0.3128056829,1.06702472034,0.24333752652,10.4225454608
1471539675000803579,-0.0933975965868,-0.215504264776,0.830912921274,0.504399165419,0.421333996053,-0.33721978498,-0.3128056829,1.06702472034,0.24333752652,10.4225454608
1471539675002418944,-0.0933975965868,-0.215504264776,0.830912921274,0.504399165419,0.421333996053,-0.33721978498,-0.3128056829,1.06702472034,0.24333752652,10.4225454608
1471539675013356568,-0.0895424813438,-0.217288051226,0.830124649288,0.50562942307,0.0816347954691,-0.753405238559,-0.480844204153,-1.58968430837,2.70510318777,12.816554895
1471539675014923778,-0.0895424813438,-0.217288051226,0.830124649288,0.50562942307,0.0816347954691,-0.753405238559,-0.480844204153,-1.58968430837,2.70510318777,12.816554895
1471539675015872306,-0.0864159084549,-0.218798876874,0.829366241319,0.506765211912,0.0528336794454,-0.609590034323,-0.425721200441,-1.17031050318,-3.45498327982,8.11611713858
1471539675017355670,-0.0864159084549,-0.218798876874,0.829366241319,0.506765211912,0.0528336794454,-0.609590034323,-0.425721200441,-1.17031050318,-3.45498327982,8.11611713858
1471539675036129415,-0.0806967720472,-0.226152631268,0.828558311765,0.505800496595,-0.213432791122,-0.691987637346,-0.119781763025,3.05434740397,-3.76136357278,8.90883982222
1471539675037157040,-0.0806967720472,-0.226152631268,0.828558311765,0.505800496595,-0.213432791122,-0.691987637346,-0.119781763025,3.05434740397,-3.76136357278,8.90883982222
1471539675038572210,-0.0806967720472,-0.226152631268,0.828558311765,0.505800496595,-0.213432791122,-0.691987637346,-0.119781763025,3.05434740397,-3.76136357278,8.90883982222
1471539675039690608,-0.0806967720472,-0.226152631268,0.828558311765,0.505800496595,-0.213432791122,-0.691987637346,-0.119781763025,3.05434740397,-3.76136357278,8.90883982222
1471539675050147927,-0.0793200541097,-0.22731981189,0.82897667764,0.504808577648,-0.0507355111356,-0.397873218905,0.128555392877,4.82812502145,-7.94279630249,7.04272175558
1471539675051664789,-0.0793200541097,-0.22731981189,0.82897667764,0.504808577648,-0.0507355111356,-0.397873218905,0.128555392877,4.82812502145,-7.94279630249,7.04272175558
1471539675054944632,-0.0789800619535,-0.226951260344,0.82954893119,0.504087141281,0.110626241513,-0.0608444328322,0.170898469648,4.4652761101,-5.80378334918,8.0951132736
1471539675058038011,-0.0789800619535,-0.226951260344,0.82954893119,0.504087141281,0.110626241513,-0.0608444328322,0.170898469648,4.4652761101,-5.80378334918,8.0951132736
1471539675065052519,-0.0799237703407,-0.226152056778,0.830294053791,0.503069798724,0.0556946095361,0.179481601279,0.302696388129,3.32965392004,-3.67579521062,11.1327323096
1471539675066542740,-0.0799237703407,-0.226152056778,0.830294053791,0.503069798724,0.0556946095361,0.179481601279,0.302696388129,3.32965392004,-3.67579521062,11.1327323096
1471539675068031661,-0.0799237703407,-0.226152056778,0.830294053791,0.503069798724,0.0556946095361,0.179481601279,0.302696388129,3.32965392004,-3.67579521062,11.1327323096
1471539675069109952,-0.0799237703407,-0.226152056778,0.830294053791,0.503069798724,0.0556946095361,0.179481601279,0.302696388129,3.32965392004,-3.67579521062,11.1327323096
1471539675087363951,-0.0831625198228,-0.224171487076,0.830985004306,0.502289819026,-0.0812530753367,0.201416074074,0.149917646044,0.272105359222,-3.94379357,9.73321671526
1471539675088801059,-0.0831625198228,-0.224171487076,0.830985004306,0.502289819026,-0.0812530753367,0.201416074074,0.149917646044,0.272105359222,-3.94379357,9.73321671526
1471539675091953493,-0.0831625198228,-0.224171487076,0.830985004306,0.502289819026,-0.0812530753367,0.201416074074,0.149917646044,0.272105359222,-3.94379357,9.73321671526
1471539675093617964,-0.0831625198228,-0.224171487076,0.830985004306,0.502289819026,-0.0812530753367,0.201416074074,0.149917646044,0.272105359222,-3.94379357,9.73321671526
1471539675110364668,-0.0841106446298,-0.224594847799,0.831108531395,0.501738141708,0.00171661383987,0.0835418735404,0.0534057639071,-0.334301522561,-5.91519900907,7.95489143864
1471539675112254707,-0.0841106446298,-0.224594847799,0.831108531395,0.501738141708,0.00171661383987,0.0835418735404,0.0534057639071,-0.334301522561,-5.91519900907,7.95489143864
1471539675114711759,-0.0827918815645,-0.224144344299,0.831264076102,0.501901238341,0.217628551258,-0.169372614827,-0.0602722368078,-0.803844691649,-6.63936496914,6.99644053045
1471539675115631535,-0.0827918815645,-0.224144344299,0.831264076102,0.501901238341,0.217628551258,-0.169372614827,-0.0602722368078,-0.803844691649,-6.63936496914,6.99644053045
1471539675125303132,-0.0794582253714,-0.223494369404,0.831490773925,0.502354207849,0.461197805678,-0.472641919963,-0.188446415223,-1.20709840517,-5.22457402946,5.89997810694
1471539675126856724,-0.0794582253714,-0.223494369404,0.831490773925,0.502354207849,0.461197805678,-0.472641919963,-0.188446415223,-1.20709840517,-5.22457402946,5.89997810694
1471539675128296802,-0.0794582253714,-0.223494369404,0.831490773925,0.502354207849,0.461197805678,-0.472641919963,-0.188446415223,-1.20709840517,-5.22457402946,5.89997810694
1471539675129609865,-0.0794582253714,-0.223494369404,0.831490773925,0.502354207849,0.461197805678,-0.472641919963,-0.188446415223,-1.20709840517,-5.22457402946,5.89997810694
1471539675147583345,-0.0709588530303,-0.224427420245,0.831045032106,0.503945759811,0.265503924277,-0.827601672009,-0.378991593059,-0.53353675661,-2.131110952,8.89883969003
1471539675148574962,-0.0709588530303,-0.224427420245,0.831045032106,0.503945759811,0.265503924277,-0.827601672009,-0.378991593059,-0.53353675661,-2.131110952,8.89883969003
1471539675152849076,-0.0709588530303,-0.224427420245,0.831045032106,0.503945759811,0.265503924277,-0.827601672009,-0.378991593059,-0.53353675661,-2.131110952,8.89883969003
1471539675154857796,-0.0671813370148,-0.226090282506,0.830547428167,0.504540208187,0.0909807968364,-0.762178750856,-0.339509053184,0.757177623041,-3.71752118778,9.64247139659
1471539675170215485,-0.0638255328169,-0.228596690582,0.83009109489,0.504597491671,-0.0970843323954,-0.802042470968,-0.238228548452,2.73691659783,-4.28651924706,10.0537656356
1471539675171745437,-0.0638255328169,-0.228596690582,0.83009109489,0.504597491671,-0.0970843323954,-0.802042470968,-0.238228548452,2.73691659783,-4.28651924706,10.0537656356
1471539675174982289,-0.0611617352819,-0.230320107094,0.829777219898,0.504659940696,-0.0303268945706,-0.609589654388,-0.18310577854,2.68891910161,-5.20530661623,9.54918923107
1471539675177476892,-0.0611617352819,-0.230320107094,0.829777219898,0.504659940696,-0.0303268945706,-0.609589654388,-0.18310577854,2.68891910161,-5.20530661623,9.54918923107
1471539675186183783,-0.059368602376,-0.231722679538,0.82963621491,0.504463794291,-0.0600815343365,-0.446701439416,-0.0785828322116,2.61679272361,-5.50533815322,9.31966166128
1471539675187616007,-0.059368602376,-0.231722679538,0.82963621491,0.504463794291,-0.0600815343365,-0.446701439416,-0.0785828322116,2.61679272361,-5.50533815322,9.31966166128
1471539675192717476,-0.059368602376,-0.231722679538,0.82963621491,0.504463794291,-0.0600815343365,-0.446701439416,-0.0785828322116,2.61679272361,-5.50533815322,9.31966166128
1471539675194236075,-0.058491859564,-0.232655392453,0.829642006223,0.504127277815,-0.0694275105143,-0.255394056535,0.00762939675981,3.03424674259,-5.29545410182,10.3397580197
1471539675207772220,-0.0581504152379,-0.233349922646,0.829626517784,0.503871197627,-0.0839233491493,-0.138473526096,0.0198364279807,2.81792508227,-5.6280490623,11.0075785644
1471539675208828693,-0.0581504152379,-0.233349922646,0.829626517784,0.503871197627,-0.0839233491493,-0.138473526096,0.0198364279807,2.81792508227,-5.6280490623,11.0075785644
1471539675219588622,-0.0580730713468,-0.233569399034,0.829628626152,0.503774946666,-0.0289916995289,-0.0394821171216,0.0129699708419,2.37597194993,-5.86105957273,10.5577637659
1471539675220597940,-0.0580730713468,-0.233569399034,0.829628626152,0.503774946666,-0.0289916995289,-0.0394821171216,0.0129699708419,2.37597194993,-5.86105957273,10.5577637659
1471539675230274466,-0.0583277215247,-0.233663519797,0.8296715325,0.503631198971,-0.0402450568287,0.0255584721092,0.0419616706271,2.19201508558,-6.06088772719,10.9888224578
1471539675231826579,-0.0583277215247,-0.233663519797,0.8296715325,0.503631198971,-0.0402450568287,0.0255584721092,0.0419616706271,2.19201508558,-6.06088772719,10.9888224578
1471539675234097239,-0.0589220004773,-0.233530777369,0.829775458046,0.503452344424,-0.0343322778114,0.102424628804,0.0724792531575,2.11606295645,-6.106211194,11.2244037448
1471539675235569175,-0.0589220004773,-0.233530777369,0.829775458046,0.503452344424,-0.0343322778114,0.102424628804,0.0724792531575,2.11606295645,-6.106211194,11.2244037448
1471539675245296358,-0.0597381613693,-0.233290193906,0.829962548839,0.503159224329,-0.0362396292183,0.143814107529,0.111389176124,1.80913821928,-5.99601146854,11.6455375012
1471539675246694612,-0.0597381613693,-0.233290193906,0.829962548839,0.503159224329,-0.0362396292183,0.143814107529,0.111389176124,1.80913821928,-5.99601146854,11.6455375012
1471539675248582413,-0.0597381613693,-0.233290193906,0.829962548839,0.503159224329,-0.0362396292183,0.143814107529,0.111389176124,1.80913821928,-5.99601146854,11.6455375012
1471539675249580422,-0.0597381613693,-0.233290193906,0.829962548839,0.503159224329,-0.0362396292183,0.143814107529,0.111389176124,1.80913821928,-5.99601146854,11.6455375012
1471539675275799870,-0.0588668167623,-0.232744474203,0.830722719515,0.502259366158,0.077056899424,-0.193595923058,0.0473022550919,0.423206907706,-4.43368601638,9.5227891378
1471539675277279139,-0.0588668167623,-0.232744474203,0.830722719515,0.502259366158,0.077056899424,-0.193595923058,0.0473022550919,0.423206907706,-4.43368601638,9.5227891378
1471539675278741695,-0.0588668167623,-0.232744474203,0.830722719515,0.502259366158,0.077056899424,-0.193595923058,0.0473022550919,0.423206907706,-4.43368601638,9.5227891378
1471539675279809047,-0.0588668167623,-0.232744474203,0.830722719515,0.502259366158,0.077056899424,-0.193595923058,0.0473022550919,0.423206907706,-4.43368601638,9.5227891378
1471539675290759433,-0.0588668167623,-0.232744474203,0.830722719515,0.502259366158,0.077056899424,-0.193595923058,0.0473022550919,0.423206907706,-4.43368601638,9.5227891378
1471539675292377106,-0.0588668167623,-0.232744474203,0.830722719515,0.502259366158,0.077056899424,-0.193595923058,0.0473022550919,0.423206907706,-4.43368601638,9.5227891378
1471539675294568479,-0.0578736655942,-0.234188414221,0.831478023979,0.500450518148,-0.062465740685,-0.201797721053,0.15954989949,1.63131203744,-4.80526823728,10.6449358258
1471539675295575212,-0.0578736655942,-0.234188414221,0.831478023979,0.500450518148,-0.062465740685,-0.201797721053,0.15954989949,1.63131203744,-4.80526823728,10.6449358258
1471539675304249752,-0.0578736655942,-0.234188414221,0.831478023979,0.500450518148,-0.062465740685,-0.201797721053,0.15954989949,1.63131203744,-4.80526823728,10.6449358258
1471539675305694972,-0.0581741539898,-0.234620799102,0.832005394747,0.499335429894,-0.0894546782413,-0.0518798986815,0.250434952091,2.84501439957,-6.54375685079,12.1222105301
1471539675320223371,-0.0588978571577,-0.234714562123,0.832544762973,0.49830646634,-0.0738144156853,0.0564575375784,0.260925376376,3.21025118055,-6.77157281574,12.6754134875
1471539675321744524,-0.0588978571577,-0.234714562123,0.832544762973,0.49830646634,-0.0738144156853,0.0564575375784,0.260925376376,3.21025118055,-6.77157281574,12.6754134875
1471539675327735043,-0.0601823647698,-0.234541348773,0.833143071124,0.497233407691,-0.0829697102203,0.173759554047,0.30365006591,3.15033327735,-7.0777997912,13.0395006878
1471539675328780724,-0.0601823647698,-0.234541348773,0.833143071124,0.497233407691,-0.0829697102203,0.173759554047,0.30365006591,3.15033327735,-7.0777997912,13.0395006878
1471539675332610209,-0.0601823647698,-0.234541348773,0.833143071124,0.497233407691,-0.0829697102203,0.173759554047,0.30365006591,3.15033327735,-7.0777997912,13.0395006878
1471539675334582486,-0.0622544549846,-0.233965523989,0.833778619338,0.496183162103,-0.0921250339235,0.345611928508,0.345611928508,3.11959627112,-7.24433995819,13.5519035797
1471539675350778574,-0.0649438098843,-0.233222964866,0.834468170758,0.495027496417,-0.124359331005,0.459481025141,0.399590181682,2.42158683654,-6.99294698925,13.803532983
1471539675352310120,-0.0649438098843,-0.233222964866,0.834468170758,0.495027496417,-0.124359331005,0.459481025141,0.399590181682,2.42158683654,-6.99294698925,13.803532983
1471539675354615407,-0.068016727141,-0.232337409215,0.835173256045,0.493840749125,-0.138092321811,0.535775320396,0.426484021504,1.74391561993,-6.89169032814,13.3789157551
1471539675356072060,-0.068016727141,-0.232337409215,0.835173256045,0.493840749125,-0.138092321811,0.535775320396,0.426484021504,1.74391561993,-6.89169032814,13.3789157551
1471539675364751395,-0.0711208898018,-0.231511685424,0.83587362054,0.492604759448,-0.15220673537,0.533295779568,0.433922710485,1.1242665364,-6.39542459275,12.9781120548
1471539675365732363,-0.0711208898018,-0.231511685424,0.83587362054,0.492604759448,-0.15220673537,0.533295779568,0.433922710485,1.1242665364,-6.39542459275,12.9781120548
1471539675372780814,-0.0711208898018,-0.231511685424,0.83587362054,0.492604759448,-0.15220673537,0.533295779568,0.433922710485,1.1242665364,-6.39542459275,12.9781120548
1471539675374265651,-0.0742265141853,-0.230780349504,0.836525847281,0.491381075853,-0.170135842968,0.525094143151,0.426484018919,0.68787522843,-5.87738689283,12.1978186797
1471539675388283391,-0.0767086876241,-0.230528113035,0.837156561334,0.490042302418,-0.191688808347,0.368500276345,0.407982448811,0.439229167251,-5.88007773883,11.1634147935
1471539675389336074,-0.0767086876241,-0.230528113035,0.837156561334,0.490042302418,-0.191688808347,0.368500276345,0.407982448811,0.439229167251,-5.88007773883,11.1634147935
1471539675392608875,-0.0767086876241,-0.230528113035,0.837156561334,0.490042302418,-0.191688808347,0.368500276345,0.407982448811,0.439229167251,-5.88007773883,11.1634147935
1471539675394584050,-0.0787618651609,-0.230355696847,0.837737133141,0.488803966108,-0.163841415883,0.294494931459,0.364685433257,0.713046083232,-5.4787053115,10.5251566476
1471539675412253041,-0.0806581266899,-0.230445335615,0.83827480425,0.48752904165,-0.194931211341,0.24108909113,0.356102320522,0.57733862311,-4.75511614275,10.5613666607
1471539675413729699,-0.0806581266899,-0.230445335615,0.83827480425,0.48752904165,-0.194931211341,0.24108909113,0.356102320522,0.57733862311,-4.75511614275,10.5613666607
1471539675415088969,-0.083006409282,-0.230942651126,0.838653303312,0.486246917473,-0.314903658263,0.279236193638,0.356293176036,1.20400794832,-4.20646970351,10.9753241001
1471539675418501820,-0.083006409282,-0.230942651126,0.838653303312,0.486246917473,-0.314903658263,0.279236193638,0.356293176036,1.20400794832,-4.20646970351,10.9753241001
1471539675424396994,-0.0860432170943,-0.231684383942,0.838863636399,0.485001763458,-0.430298669694,0.376320600756,0.359917371326,1.51942355498,-4.07729502408,11.100269901
1471539675425706298,-0.0860432170943,-0.231684383942,0.838863636399,0.485001763458,-0.430298669694,0.376320600756,0.359917371326,1.51942355498,-4.07729502408,11.100269901
1471539675432883347,-0.0860432170943,-0.231684383942,0.838863636399,0.485001763458,-0.430298669694,0.376320600756,0.359917371326,1.51942355498,-4.07729502408,11.100269901
1471539675433960466,-0.0894559571783,-0.232769457041,0.838860866569,0.483868223935,-0.532342259241,0.414277100348,0.333405327536,1.84519603385,-3.85243058477,10.7114370794
1471539675447437628,-0.093610130408,-0.234640962057,0.838626098698,0.48258370154,-0.749781561334,0.460244952302,0.355912590549,2.10109620865,-3.00465889854,9.72815384364
1471539675448902644,-0.093610130408,-0.234640962057,0.838626098698,0.48258370154,-0.749781561334,0.460244952302,0.355912590549,2.10109620865,-3.00465889854,9.72815384364
1471539675454733655,-0.0995710156864,-0.237840011299,0.838209723112,0.480543652483,-1.16959596623,0.602917946714,0.525669680843,2.61756671833,-3.36467830714,9.52222530444
1471539675455749346,-0.0995710156864,-0.237840011299,0.838209723112,0.480543652483,-1.16959596623,0.602917946714,0.525669680843,2.61756671833,-3.36467830714,9.52222530444
1471539675470941157,-0.107333274154,-0.241194620005,0.837823737623,0.477866203257,-1.38017563526,0.859271868001,0.717935474175,2.65209595071,-3.97662311064,9.35544397641
1471539675472072639,-0.107333274154,-0.241194620005,0.837823737623,0.477866203257,-1.38017563526,0.859271868001,0.717935474175,2.65209595071,-3.97662311064,9.35544397641
1471539675482726251,-0.115655407608,-0.24458632084,0.83741610687,0.474905908895,-1.44712708024,0.936903679735,0.788891209158,2.65048602254,-4.37908287261,9.03890065502
1471539675483774794,-0.123651944482,-0.24765715416,0.837064403974,0.471910281959,-1.36053052359,0.909245619791,0.792895750256,2.48311129251,-4.45317192562,8.1768592442
1471539675486244325,-0.123651944482,-0.24765715416,0.837064403974,0.471910281959,-1.36053052359,0.909245619791,0.792895750256,2.48311129251,-4.45317192562,8.1768592442
1471539675487766700,-0.123651944482,-0.24765715416,0.837064403974,0.471910281959,-1.36053052359,0.909245619791,0.792895750256,2.48311129251,-4.45317192562,8.1768592442
1471539675492941269,-0.131015194968,-0.250365655491,0.837004411771,0.4685890224,-1.23368806764,0.813494064389,0.853739608958,2.25934905994,-4.43001455042,7.12332747088
1471539675494381074,-0.131015194968,-0.250365655491,0.837004411771,0.4685890224,-1.23368806764,0.813494064389,0.853739608958,2.25934905994,-4.43001455042,7.12332747088
1471539675507446168,-0.138113766026,-0.252737906847,0.837367838318,0.464610849451,-1.14861917711,0.757035787768,0.998699769401,2.18699287397,-4.05248114758,6.04007098013
1471539675508890101,-0.138113766026,-0.252737906847,0.837367838318,0.464610849451,-1.14861917711,0.757035787768,0.998699769401,2.18699287397,-4.05248114758,6.04007098013
1471539675511737698,-0.138113766026,-0.252737906847,0.837367838318,0.464610849451,-1.14861917711,0.757035787768,0.998699769401,2.18699287397,-4.05248114758,6.04007098013
1471539675513237089,-0.145512267156,-0.254763882853,0.838222468246,0.45967884205,-1.12001084329,0.777636956422,1.22911271699,2.07933212405,-3.88233202439,5.39433548095
1471539675531457237,-0.154045051553,-0.256408234014,0.839543206928,0.453532957263,-1.17189755246,0.927752229028,1.54421917069,2.0235012529,-3.3814610006,4.69341156089
1471539675532416422,-0.154045051553,-0.256408234014,0.839543206928,0.453532957263,-1.17189755246,0.927752229028,1.54421917069,2.0235012529,-3.3814610006,4.69341156089
1471539675534238338,-0.164053951761,-0.258002645313,0.84111013668,0.446155436925,-1.32278158589,1.10934357657,1.85094052047,1.89087972537,-2.80564625408,4.38685464328
1471539675535735189,-0.164053951761,-0.258002645313,0.84111013668,0.446155436925,-1.32278158589,1.10934357657,1.85094052047,1.89087972537,-2.80564625408,4.38685464328
1471539675544458791,-0.175758564864,-0.259812780724,0.842472190141,0.438003258764,-1.5465322163,1.341485086,2.04455831605,2.04441002419,-2.23949918652,4.05715760068
1471539675545357843,-0.175758564864,-0.259812780724,0.842472190141,0.438003258764,-1.5465322163,1.341485086,2.04455831605,2.04441002419,-2.23949918652,4.05715760068
1471539675552424691,-0.18908444179,-0.261992610477,0.843272673801,0.42953247089,-1.79126735705,1.5862186499,2.11953603147,1.97420518256,-2.11827401026,3.7936781815
1471539675553856113,-0.18908444179,-0.261992610477,0.843272673801,0.42953247089,-1.79126735705,1.5862186499,2.11953603147,1.97420518256,-2.11827401026,3.7936781815
1471539675567425053,-0.20385994795,-0.2645263053,0.843304396642,0.421075587074,-2.01521356301,1.83095456615,2.11287464623,1.71798041851,-2.13014177758,3.61921974136
1471539675569523971,-0.20385994795,-0.2645263053,0.843304396642,0.421075587074,-2.01521356301,1.83095456615,2.11287464623,1.71798041851,-2.13014177758,3.61921974136
1471539675572352194,-0.20385994795,-0.2645263053,0.843304396642,0.421075587074,-2.01521356301,1.83095456615,2.11287464623,1.71798041851,-2.13014177758,3.61921974136
1471539675573793483,-0.219744375417,-0.267238993147,0.84248836468,0.412927457786,-2.17125344828,2.05318212399,2.04173740758,1.03106210624,-2.33943580312,3.08647375604
1471539675591129560,-0.235555808449,-0.269846820518,0.841232650346,0.404998496977,-2.16133270516,2.08102901892,1.96868015621,0.0256548966379,-3.57717077686,3.76586871986
1471539675592474713,-0.235555808449,-0.269846820518,0.841232650346,0.404998496977,-2.16133270516,2.08102901892,1.96868015621,0.0256548966379,-3.57717077686,3.76586871986
1471539675594787807,-0.250228567394,-0.271702464075,0.839950939104,0.397549814455,-1.92117007505,1.97782094006,1.85936913142,-0.554166155605,-4.34730614866,3.79869417612
1471539675595824034,-0.250228567394,-0.271702464075,0.839950939104,0.397549814455,-1.92117007505,1.97782094006,1.85936913142,-0.554166155605,-4.34730614866,3.79869417612
1471539675613443910,-0.276627590826,-0.271035325533,0.838240591446,0.383887664765,-1.21387850577,1.87250868812,1.8143325498,-1.32359607771,-4.74172592018,3.76795757579
1471539675614480106,-0.276627590826,-0.271035325533,0.838240591446,0.383887664765,-1.21387850577,1.87250868812,1.8143325498,-1.32359607771,-4.74172592018,3.76795757579
1471539675615425221,-0.276627590826,-0.271035325533,0.838240591446,0.383887664765,-1.21387850577,1.87250868812,1.8143325498,-1.32359607771,-4.74172592018,3.76795757579
1471539675616490186,-0.276627590826,-0.271035325533,0.838240591446,0.383887664765,-1.21387850577,1.87250868812,1.8143325498,-1.32359607771,-4.74172592018,3.76795757579
1471539675636031126,-0.300841477225,-0.266794579656,0.837085871048,0.370947843151,-0.920897880526,1.91675700112,1.81280311858,-1.16799372905,-3.64203441433,3.14017798717
1471539675636941692,-0.300841477225,-0.266794579656,0.837085871048,0.370947843151,-0.920897880526,1.91675700112,1.81280311858,-1.16799372905,-3.64203441433,3.14017798717
1471539675638460394,-0.300841477225,-0.266794579656,0.837085871048,0.370947843151,-0.920897880526,1.91675700112,1.81280311858,-1.16799372905,-3.64203441433,3.14017798717
1471539675639680210,-0.300841477225,-0.266794579656,0.837085871048,0.370947843151,-0.920897880526,1.91675700112,1.81280311858,-1.16799372905,-3.64203441433,3.14017798717
1471539675650961363,-0.313516157166,-0.264444165519,0.835945950176,0.364652260247,-0.98651486167,2.03025216311,1.79239755513,-1.80554060774,-3.07443702147,3.52576800454
1471539675652393823,-0.313516157166,-0.264444165519,0.835945950176,0.364652260247,-0.98651486167,2.03025216311,1.79239755513,-1.80554060774,-3.07443702147,3.52576800454
1471539675654784368,-0.326377782337,-0.262709449123,0.834364008131,0.358187088648,-1.13739242541,2.0348318622,1.7601638943,-2.81793817218,-3.09739384801,3.70170308711
1471539675655816810,-0.326377782337,-0.262709449123,0.834364008131,0.358187088648,-1.13739242541,2.0348318622,1.7601638943,-2.81793817218,-3.09739384801,3.70170308711
1471539675673371064,-0.35114292183,-0.261497701902,0.829873125998,0.345873091024,-1.34052586528,1.85876843442,1.46031104504,-4.17581506352,-3.64967226049,4.4232321466
1471539675674933122,-0.35114292183,-0.261497701902,0.829873125998,0.345873091024,-1.34052586528,1.85876843442,1.46031104504,-4.17581506352,-3.64967226049,4.4232321466
1471539675677315393,-0.35114292183,-0.261497701902,0.829873125998,0.345873091024,-1.34052586528,1.85876843442,1.46031104504,-4.17581506352,-3.64967226049,4.4232321466
1471539675678277926,-0.35114292183,-0.261497701902,0.829873125998,0.345873091024,-1.34052586528,1.85876843442,1.46031104504,-4.17581506352,-3.64967226049,4.4232321466
1471539675687458203,-0.361634103204,-0.262086005846,0.827313551404,0.340711004522,-1.32010766712,1.61117605319,1.19193076316,-4.65441357042,-4.35426785811,4.68075083497
1471539675688946017,-0.361634103204,-0.262086005846,0.827313551404,0.340711004522,-1.32010766712,1.61117605319,1.19193076316,-4.65441357042,-4.35426785811,4.68075083497
1471539675692592921,-0.361634103204,-0.262086005846,0.827313551404,0.340711004522,-1.32010766712,1.61117605319,1.19193076316,-4.65441357042,-4.35426785811,4.68075083497
1471539675693432649,-0.370573089663,-0.263078071086,0.824930352853,0.336088420915,-1.23293239926,1.34222544765,1.00404643405,-4.51134531931,-4.81008084102,4.67667541501
1471539675710649416,-0.377886865376,-0.264744903758,0.822620751158,0.332275115944,-1.17093622951,1.06622145675,0.739488477247,-4.32262898785,-4.58930076679,4.76882008299
1471539675712110042,-0.377886865376,-0.264744903758,0.822620751158,0.332275115944,-1.17093622951,1.06622145675,0.739488477247,-4.32262898785,-4.58930076679,4.76882008299
1471539675715946905,-0.3835244009,-0.267461891586,0.820142488791,0.329756680817,-1.14346537247,0.801856284545,0.347140446687,-3.56563693701,-4.54183870376,4.39713415855
1471539675717436203,-0.3835244009,-0.267461891586,0.820142488791,0.329756680817,-1.14346537247,0.801856284545,0.347140446687,-3.56563693701,-4.54183870376,4.39713415855
1471539675733161852,-0.392621603367,-0.274344480397,0.813976749731,0.328671923873,-1.02673272522,0.724034446394,-0.218202161927,-3.86308548571,-5.8929191591,3.30667927316
1471539675734577752,-0.392621603367,-0.274344480397,0.813976749731,0.328671923873,-1.02673272522,0.724034446394,-0.218202161927,-3.86308548571,-5.8929191591,3.30667927316
1471539675736978139,-0.392621603367,-0.274344480397,0.813976749731,0.328671923873,-1.02673272522,0.724034446394,-0.218202161927,-3.86308548571,-5.8929191591,3.30667927316
1471539675738433081,-0.392621603367,-0.274344480397,0.813976749731,0.328671923873,-1.02673272522,0.724034446394,-0.218202161927,-3.86308548571,-5.8929191591,3.30667927316
1471539675747579804,-0.397038141632,-0.277065276103,0.810969057655,0.328519001571,-0.910382961662,0.768666108422,-0.13980949317,-4.26467943143,-6.38832524992,3.07511895473
1471539675748611109,-0.397038141632,-0.277065276103,0.810969057655,0.328519001571,-0.910382961662,0.768666108422,-0.13980949317,-4.26467943143,-6.38832524992,3.07511895473
1471539675751489493,-0.397038141632,-0.277065276103,0.810969057655,0.328519001571,-0.910382961662,0.768666108422,-0.13980949317,-4.26467943143,-6.38832524992,3.07511895473
1471539675753030727,-0.401783153484,-0.278806382319,0.8082732574,0.327920173407,-0.790981856502,0.836949213005,0.0488283952892,-4.55063310037,-6.48808405063,3.34892766287
1471539675770707910,-0.406805661417,-0.279941678559,0.805977366803,0.326408171843,-0.762371588404,0.838284496131,0.28686686739,-5.02415687959,-6.4087798099,3.87849613818
1471539675772632545,-0.406805661417,-0.279941678559,0.805977366803,0.326408171843,-0.762371588404,0.838284496131,0.28686686739,-5.02415687959,-6.4087798099,3.87849613818
1471539675775436071,-0.411612517708,-0.28060418139,0.804214338025,0.324153863415,-0.702670966561,0.749401256139,0.467684367537,-4.94612414606,-6.49913193225,4.67064061221
1471539675776472142,-0.411612517708,-0.28060418139,0.804214338025,0.324153863415,-0.702670966561,0.749401256139,0.467684367537,-4.94612414606,-6.49913193225,4.67064061221
1471539675793274245,-0.420148085958,-0.281579877783,0.801343415491,0.319432447854,-0.641444053011,0.63171653392,0.450136177552,-3.92414690185,-5.89211686578,5.31546873727
1471539675794827585,-0.420148085958,-0.281579877783,0.801343415491,0.319432447854,-0.641444053011,0.63171653392,0.450136177552,-3.92414690185,-5.89211686578,5.31546873727
1471539675797088835,-0.420148085958,-0.281579877783,0.801343415491,0.319432447854,-0.641444053011,0.63171653392,0.450136177552,-3.92414690185,-5.89211686578,5.31546873727
1471539675811133828,-0.424187464669,-0.283001627197,0.799246164661,0.318089047432,-0.717166027267,0.657656505856,0.193596680233,-3.89887485796,-6.08673466277,5.25499510231
1471539675812584077,-0.427855726147,-0.285491884178,0.796347248839,0.318221496662,-0.784305426841,0.682261797619,-0.205231672977,-4.69104838495,-6.57270978916,4.77397977005
1471539675820101776,-0.427855726147,-0.285491884178,0.796347248839,0.318221496662,-0.784305426841,0.682261797619,-0.205231672977,-4.69104838495,-6.57270978916,4.77397977005
1471539675821084060,-0.427855726147,-0.285491884178,0.796347248839,0.318221496662,-0.784305426841,0.682261797619,-0.205231672977,-4.69104838495,-6.57270978916,4.77397977005
1471539675834585712,-0.432668762001,-0.292792299783,0.789811859863,0.321352824162,-0.772098888654,0.450327439751,-0.703433967726,-6.12828001453,-7.9241759859,4.33190259901
1471539675835582061,-0.432668762001,-0.292792299783,0.789811859863,0.321352824162,-0.772098888654,0.450327439751,-0.703433967726,-6.12828001453,-7.9241759859,4.33190259901
1471539675837583360,-0.432668762001,-0.292792299783,0.789811859863,0.321352824162,-0.772098888654,0.450327439751,-0.703433967726,-6.12828001453,-7.9241759859,4.33190259901
1471539675838924085,-0.432668762001,-0.292792299783,0.789811859863,0.321352824162,-0.772098888654,0.450327439751,-0.703433967726,-6.12828001453,-7.9241759859,4.33190259901
1471539675857589359,-0.43523120357,-0.299764931872,0.784154168377,0.325295289354,-0.588991574322,0.307656544489,-0.708773539567,-6.18351432177,-8.52414880527,4.11581797821
1471539675861684125,-0.43523120357,-0.299764931872,0.784154168377,0.325295289354,-0.588991574322,0.307656544489,-0.708773539567,-6.18351432177,-8.52414880527,4.11581797821
1471539675862298297,-0.436009401484,-0.303057878874,0.78167966443,0.327152298,-0.553705236044,0.234986169758,-0.688364518389,-6.07296087459,-8.74407230458,4.23219364068
1471539675863743851,-0.436009401484,-0.303057878874,0.78167966443,0.327152298,-0.553705236044,0.234986169758,-0.688364518389,-6.07296087459,-8.74407230458,4.23219364068
1471539675871099742,-0.436009401484,-0.303057878874,0.78167966443,0.327152298,-0.553705236044,0.234986169758,-0.688364518389,-6.07296087459,-8.74407230458,4.23219364068
1471539675872310564,-0.436009401484,-0.303057878874,0.78167966443,0.327152298,-0.553705236044,0.234986169758,-0.688364518389,-6.07296087459,-8.74407230458,4.23219364068
1471539675880135111,-0.436526189195,-0.306383650356,0.779249880055,0.329155843599,-0.526239339111,0.196839071389,-0.72708385672,-6.44187523873,-8.89141722195,4.43808173604
1471539675881598508,-0.436526189195,-0.306383650356,0.779249880055,0.329155843599,-0.526239339111,0.196839071389,-0.72708385672,-6.44187523873,-8.89141722195,4.43808173604
1471539675894584504,-0.43609541682,-0.313693537824,0.774685595236,0.333585641612,-0.476076145661,0.0131607588344,-0.86288801401,-7.23321912887,-9.86829979063,4.31569748977
1471539675896097311,-0.43609541682,-0.313693537824,0.774685595236,0.333585641612,-0.476076145661,0.0131607588344,-0.86288801401,-7.23321912887,-9.86829979063,4.31569748977
1471539675898050103,-0.43609541682,-0.313693537824,0.774685595236,0.333585641612,-0.476076145661,0.0131607588344,-0.86288801401,-7.23321912887,-9.86829979063,4.31569748977
1471539675899581919,-0.43609541682,-0.313693537824,0.774685595236,0.333585641612,-0.476076145661,0.0131607588344,-0.86288801401,-7.23321912887,-9.86829979063,4.31569748977
1471539675917093239,-0.433302021609,-0.321391050331,0.770582451424,0.339352083232,-0.345422550622,-0.134278009739,-1.02615865397,-7.13261600438,-10.6579873578,4.14905512319
1471539675918112139,-0.433302021609,-0.321391050331,0.770582451424,0.339352083232,-0.345422550622,-0.134278009739,-1.02615865397,-7.13261600438,-10.6579873578,4.14905512319
1471539675920097212,-0.433302021609,-0.321391050331,0.770582451424,0.339352083232,-0.345422550622,-0.134278009739,-1.02615865397,-7.13261600438,-10.6579873578,4.14905512319
1471539675921596989,-0.433302021609,-0.321391050331,0.770582451424,0.339352083232,-0.345422550622,-0.134278009739,-1.02615865397,-7.13261600438,-10.6579873578,4.14905512319
1471539675930637443,-0.431463618783,-0.324495837945,0.768930680279,0.342472197045,-0.18901904688,-0.150490441966,-0.97675735527,-7.09173071848,-11.2172328527,4.14069656638
1471539675932118972,-0.431463618783,-0.324495837945,0.768930680279,0.342472197045,-0.18901904688,-0.150490441966,-0.97675735527,-7.09173071848,-11.2172328527,4.14069656638
1471539675940158910,-0.429383543433,-0.326695670238,0.767809005094,0.345498253793,-0.00686647732182,-0.177574732961,-0.8636502587,-7.032979444,-11.4869647874,4.15627285314
1471539675941110725,-0.429383543433,-0.326695670238,0.767809005094,0.345498253793,-0.00686647732182,-0.177574732961,-0.8636502587,-7.032979444,-11.4869647874,4.15627285314
1471539675955625267,-0.42428970108,-0.32883034938,0.767275573373,0.350908884739,0.287056636305,-0.292969430807,-0.624085922916,-6.39739797887,-11.3785899009,4.34091588031
1471539675957080929,-0.42428970108,-0.32883034938,0.767275573373,0.350908884739,0.287056636305,-0.292969430807,-0.624085922916,-6.39739797887,-11.3785899009,4.34091588031
1471539675958565681,-0.42428970108,-0.32883034938,0.767275573373,0.350908884739,0.287056636305,-0.292969430807,-0.624085922916,-6.39739797887,-11.3785899009,4.34091588031
1471539675960081022,-0.42428970108,-0.32883034938,0.767275573373,0.350908884739,0.287056636305,-0.292969430807,-0.624085922916,-6.39739797887,-11.3785899009,4.34091588031
1471539675977090345,-0.421018774723,-0.328442858381,0.767648056446,0.354379657351,0.284004384375,-0.0602722535007,-0.24871841318,-5.18587749162,-10.4248875882,4.50245318062
1471539675978138570,-0.421018774723,-0.328442858381,0.767648056446,0.354379657351,0.284004384375,-0.0602722535007,-0.24871841318,-5.18587749162,-10.4248875882,4.50245318062
1471539675980598871,-0.421018774723,-0.328442858381,0.767648056446,0.354379657351,0.284004384375,-0.0602722535007,-0.24871841318,-5.18587749162,-10.4248875882,4.50245318062
1471539675982096383,-0.420617154845,-0.327894092215,0.767601372734,0.355464211866,0.201988274924,0.0518798968643,-0.14667514959,-5.31879518655,-10.0515048579,4.7523473266
1471539675991141267,-0.420617154845,-0.327894092215,0.767601372734,0.355464211866,0.201988274924,0.0518798968643,-0.14667514959,-5.31879518655,-10.0515048579,4.7523473266
1471539675992095240,-0.420705579648,-0.327560063731,0.767362625647,0.356182285721,0.0907898051937,0.103950512249,-0.0900268656543,-5.50342505244,-10.0466145299,4.95775417599
1471539676007602191,-0.42108224017,-0.327298173294,0.767024597377,0.356705648666,0.0362396275633,0.138473524268,-0.054359441345,-5.64284929172,-10.0779841346,5.1342186231
1471539676009085606,-0.42108224017,-0.327298173294,0.767024597377,0.356705648666,0.0362396275633,0.138473524268,-0.054359441345,-5.64284929172,-10.0779841346,5.1342186231
1471539676014103099,-0.421465414198,-0.327006021424,0.766700194716,0.357218109857,0.040435794986,0.139808668513,-0.0488281297945,-5.85447216353,-10.0223468425,5.21644014638
1471539676016100638,-0.421465414198,-0.327006021424,0.766700194716,0.357218109857,0.040435794986,0.139808668513,-0.0488281297945,-5.85447216353,-10.0223468425,5.21644014638
1471539676017590321,-0.421465414198,-0.327006021424,0.766700194716,0.357218109857,0.040435794986,0.139808668513,-0.0488281297945,-5.85447216353,-10.0223468425,5.21644014638
1471539676019097976,-0.421465414198,-0.327006021424,0.766700194716,0.357218109857,0.040435794986,0.139808668513,-0.0488281297945,-5.85447216353,-10.0223468425,5.21644014638
1471539676037104723,-0.42130462878,-0.32599279444,0.766788965796,0.358142136133,0.166320820259,0.0116348280227,-0.0175476094768,-5.88322938273,-9.66436135659,4.96375133707
1471539676041840646,-0.42130462878,-0.32599279444,0.766788965796,0.358142136133,0.166320820259,0.0116348280227,-0.0175476094768,-5.88322938273,-9.66436135659,4.96375133707
1471539676042939524,-0.420814419942,-0.325169294411,0.767201330582,0.358583703331,0.226593066554,-0.0228881885408,0.00228881885408,-5.47336526697,-9.35045593664,4.78074027782
1471539676044730574,-0.420814419942,-0.325169294411,0.767201330582,0.358583703331,0.226593066554,-0.0228881885408,0.00228881885408,-5.47336526697,-9.35045593664,4.78074027782
1471539676050629546,-0.420814419942,-0.325169294411,0.767201330582,0.358583703331,0.226593066554,-0.0228881885408,0.00228881885408,-5.47336526697,-9.35045593664,4.78074027782
1471539676051601993,-0.420814419942,-0.325169294411,0.767201330582,0.358583703331,0.226593066554,-0.0228881885408,0.00228881885408,-5.47336526697,-9.35045593664,4.78074027782
1471539676059711233,-0.420391313361,-0.32400355428,0.767696352394,0.359075411281,0.28400430829,0.00839233684671,0.0335693473869,-5.06761936454,-9.01993358336,4.45596206355
1471539676061133250,-0.420391313361,-0.32400355428,0.767696352394,0.359075411281,0.28400430829,0.00839233684671,0.0335693473869,-5.06761936454,-9.01993358336,4.45596206355
1471539676074629625,-0.420666165172,-0.320896575345,0.768426261324,0.35998117495,0.278663782628,0.183868505444,0.124359196628,-4.56842310453,-8.2675400052,4.30420815165
1471539676075652183,-0.420666165172,-0.320896575345,0.768426261324,0.35998117495,0.278663782628,0.183868505444,0.124359196628,-4.56842310453,-8.2675400052,4.30420815165
1471539676078126799,-0.420666165172,-0.320896575345,0.768426261324,0.35998117495,0.278663782628,0.183868505444,0.124359196628,-4.56842310453,-8.2675400052,4.30420815165
1471539676079126188,-0.420666165172,-0.320896575345,0.768426261324,0.35998117495,0.278663782628,0.183868505444,0.124359196628,-4.56842310453,-8.2675400052,4.30420815165
1471539676097639086,-0.423418340829,-0.317039636909,0.768248062991,0.36055192551,0.203132866357,0.428772472835,0.234222685339,-4.63664189566,-8.0842607991,4.37423879763
1471539676098603483,-0.423418340829,-0.317039636909,0.768248062991,0.36055192551,0.203132866357,0.428772472835,0.234222685339,-4.63664189566,-8.0842607991,4.37423879763
1471539676100689411,-0.423418340829,-0.317039636909,0.768248062991,0.36055192551,0.203132866357,0.428772472835,0.234222685339,-4.63664189566,-8.0842607991,4.37423879763
1471539676102130027,-0.423418340829,-0.317039636909,0.768248062991,0.36055192551,0.203132866357,0.428772472835,0.234222685339,-4.63664189566,-8.0842607991,4.37423879763
1471539676119643673,-0.42793546184,-0.311932992488,0.767806375731,0.360613946049,0.234222916591,0.573159498661,0.36544878517,-4.93510808801,-8.15832887961,4.51818080559
1471539676120663484,-0.42793546184,-0.311932992488,0.767806375731,0.360613946049,0.234222916591,0.573159498661,0.36544878517,-4.93510808801,-8.15832887961,4.51818080559
1471539676124145049,-0.430018930533,-0.309178656237,0.767684909816,0.360766069845,0.279236398402,0.537491919875,0.336456971845,-5.13549302555,-7.98167030981,4.63178320502
